1
4000
10001
-------------------------------------
-20,3730520000000
-19,3669760000000
-21,2533700000000
-21,3791290000000
-18,6752980000000
-20,3101730000000
-22,3852060000000
-25,0890370000000
-29,8679010000000
-29,8679010000000
-25,7807150000000
-19,9328940000000
-15,7199480000000
-18,2351400000000
-21,9450470000000
-23,7685610000000
-24,7746380000000
-25,2776760000000
-25,6549550000000
-25,5291950000000
-27,7299880000000
-29,5535020000000
-32,8861310000000
-34,8982840000000
-34,7725250000000
-28,5474250000000
-25,1519170000000
-27,1011900000000
-31,0626170000000
-30,8110980000000
-29,3648630000000
-26,2837530000000
-22,1336870000000
-21,0018500000000
-22,4480860000000
-24,0829600000000
-23,7056810000000
-22,5109650000000
-27,4155890000000
-29,7421410000000
-22,1336870000000
-16,3487460000000
-22,0079270000000
-29,2391030000000
-28,6731850000000
-25,2147960000000
-26,9125510000000
-28,9875840000000
-31,9429340000000
-32,8232510000000
-28,1701470000000
-20,3101730000000
-20,8132110000000
-23,3912820000000
-24,9632770000000
-23,6428020000000
-19,9957740000000
-22,6367250000000
-32,1315740000000
-35,3384430000000
-29,6792620000000
-29,2391030000000
-30,9368570000000
-30,7482180000000
-25,2776760000000
-19,3040960000000
-22,0708070000000
-26,4095120000000
-25,9064740000000
-25,6549550000000
-26,0322340000000
-24,2716000000000
-23,5170420000000
-27,9815070000000
-36,0930000000000
-37,2877160000000
-31,3141360000000
-26,5981520000000
-30,0565400000000
-29,6792620000000
-23,8943210000000
-22,1965660000000
-25,8435940000000
-27,2898300000000
-25,3405560000000
-27,4155890000000
-28,4845460000000
-28,6103050000000
-30,3080600000000
-34,1437270000000
-31,6914150000000
-23,0768840000000
-16,4745050000000
-16,0972270000000
-20,4359320000000
-23,3912820000000
-19,8700140000000
-18,3608990000000
-23,3912820000000
-23,7056810000000
-20,1215330000000
-17,5434620000000
-20,3101730000000
-26,2208730000000
-27,1640700000000
-23,8943210000000
-23,3284030000000
-27,3527090000000
-29,6163820000000
-28,7360650000000
-23,8314410000000
-19,8700140000000
-15,7199480000000
-14,2737130000000
-17,8578610000000
-21,6306480000000
-15,0282700000000
-6,91677700000000
-3,01823000000000
-0,691678000000000
3,26974900000000
1,44623500000000
-5,47054200000000
-10,5638050000000
-15,2797890000000
-18,7381780000000
-24,2716000000000
-33,3262900000000
-40,3059460000000
-40,3059460000000
-35,3384430000000
-28,4845460000000
-28,1701470000000
-33,3891690000000
-41,2491430000000
-43,7014550000000
-41,1233840000000
-42,8840180000000
-44,3302530000000
-43,0097770000000
-38,4195530000000
-39,4256290000000
-41,3120230000000
-41,5635420000000
-35,5270820000000
-30,8110980000000
-35,2126830000000
-40,1173070000000
-40,3688260000000
-36,7846780000000
-33,1376500000000
-28,4845460000000
-25,9064740000000
-26,2837530000000
-29,4277420000000
-27,5413490000000
-22,9511240000000
-24,5231190000000
-28,6103050000000
-24,5231190000000
-21,3791290000000
-24,3344790000000
-30,2451800000000
-31,7542950000000
-28,2330260000000
-26,2837530000000
-27,9186270000000
-35,1498040000000
-38,7968310000000
-35,2126830000000
-30,6224590000000
-28,2330260000000
-25,2776760000000
-26,5352720000000
-30,2451800000000
-28,4845460000000
-20,9389710000000
-16,2229860000000
-20,5616920000000
-21,8192880000000
-19,6813750000000
-19,4298560000000
-23,4541620000000
-23,8314410000000
-17,7949810000000
-15,4684290000000
-20,1215330000000
-26,9125510000000
-30,4966990000000
-32,2573330000000
-29,1762230000000
-25,9693540000000
-23,7685610000000
-25,1519170000000
-25,4663160000000
-23,0768840000000
-21,6306480000000
-23,6428020000000
-25,7807150000000
-25,2147960000000
-23,3284030000000
-25,1519170000000
-30,3709390000000
-28,7360650000000
-24,5859990000000
-24,4602390000000
-27,6042290000000
-30,1823000000000
-30,6853380000000
-28,3587860000000
-26,9125510000000
-26,4723920000000
-25,6549550000000
-24,3344790000000
-22,6996050000000
-20,6245720000000
-18,8639370000000
-21,1276100000000
-23,6428020000000
-18,8639370000000
-14,0850730000000
-18,7381780000000
-23,5170420000000
-19,7442550000000
-14,0221940000000
-16,1601060000000
-22,9511240000000
-27,6671080000000
-32,1315740000000
-30,9368570000000
-26,1579930000000
-21,3791290000000
-19,8071340000000
-19,6184950000000
-25,0890370000000
-28,2959060000000
-27,5413490000000
-27,2269500000000
-27,6042290000000
-28,1701470000000
-28,4845460000000
-29,4906220000000
-28,6103050000000
-23,1397630000000
-19,9957740000000
-24,5231190000000
-29,9307810000000
-32,0058140000000
-30,6224590000000
-28,8618240000000
-26,9754310000000
-25,4663160000000
-24,0200800000000
-20,8132110000000
-20,2472930000000
-20,9389710000000
-20,5616920000000
-19,0525770000000
-20,8760910000000
-18,2351400000000
-20,1844130000000
-25,8435940000000
-28,9247040000000
-25,0261570000000
-20,0586540000000
-21,3162490000000
-26,0951140000000
-31,4398960000000
-34,0808470000000
-32,1944530000000
-25,9064740000000
-19,5556150000000
-18,9268170000000
-25,5920750000000
-28,2330260000000
-23,5170420000000
-18,3608990000000
-19,8700140000000
-24,0200800000000
-21,6306480000000
-20,1844130000000
-24,9632770000000
-31,1254970000000
-28,2959060000000
-22,8882440000000
-21,8821670000000
-25,2776760000000
-27,5413490000000
-28,8618240000000
-28,3587860000000
-26,2208730000000
-22,1336870000000
-18,8639370000000
-18,6124180000000
-19,6813750000000
-20,9389710000000
-21,8192880000000
-25,1519170000000
-26,4095120000000
-24,7117580000000
-22,7624850000000
-23,3284030000000
-24,5231190000000
-22,6367250000000
-24,4602390000000
-29,3648630000000
-33,2634100000000
-31,5027760000000
-30,6853380000000
-27,9815070000000
-24,9632770000000
-18,5495390000000
-17,1661830000000
-21,6935280000000
-26,9754310000000
-27,9815070000000
-27,3527090000000
-30,1194200000000
-32,1315740000000
-29,8050210000000
-25,7807150000000
-27,1640700000000
-30,9368570000000
-27,2269500000000
-23,4541620000000
-26,2208730000000
-29,9307810000000
-33,8922080000000
-36,8475580000000
-35,7786010000000
-30,9997370000000
-25,3405560000000
-24,1458400000000
-25,9064740000000
-27,1011900000000
-22,5109650000000
-21,6306480000000
-24,8375180000000
-25,7807150000000
-22,0708070000000
-21,6306480000000
-24,0829600000000
-26,7867910000000
-26,5352720000000
-24,8375180000000
-25,4034360000000
-30,2451800000000
-37,0361970000000
-39,5513890000000
-33,5149290000000
-22,8882440000000
-18,4237790000000
-22,5109650000000
-28,0443870000000
-27,6671080000000
-23,8314410000000
-24,0200800000000
-26,2208730000000
-26,2208730000000
-23,2655230000000
-26,3466330000000
-30,6853380000000
-32,1315740000000
-27,7299880000000
-26,4095120000000
-29,8050210000000
-30,6853380000000
-31,1883770000000
-32,6346120000000
-29,2391030000000
-20,0586540000000
-15,2169100000000
-19,3040960000000
-26,0322340000000
-27,2898300000000
-22,0708070000000
-18,4866590000000
-22,5109650000000
-24,9003970000000
-23,0140040000000
-21,3791290000000
-26,2208730000000
-27,6671080000000
-21,6306480000000
-19,4298560000000
-22,2594460000000
-25,9693540000000
-29,9307810000000
-34,2694860000000
-28,7989450000000
-21,2533700000000
-21,0018500000000
-25,9693540000000
-28,4216660000000
-28,2330260000000
-26,8496710000000
-28,6731850000000
-33,3891690000000
-33,8922080000000
-30,4966990000000
-27,4784690000000
-28,9247040000000
-30,7482180000000
-29,2391030000000
-29,9936610000000
-35,2755630000000
-37,9165140000000
-38,6081920000000
-37,0990770000000
-32,9490110000000
-26,6610320000000
-19,4927350000000
-18,4237790000000
-22,6996050000000
-26,8496710000000
-21,4420090000000
-18,3608990000000
-20,9389710000000
-24,4602390000000
-25,5920750000000
-26,4723920000000
-28,6103050000000
-25,9693540000000
-20,4359320000000
-19,8071340000000
-24,5231190000000
-29,3019830000000
-30,4338190000000
-29,8050210000000
-27,0383100000000
-22,1965660000000
-19,3040960000000
-20,3101730000000
-21,8821670000000
-24,0200800000000
-26,0951140000000
-26,2837530000000
-25,1519170000000
-23,0768840000000
-18,2351400000000
-21,3791290000000
-29,3019830000000
-29,6792620000000
-22,6996050000000
-18,7381780000000
-21,0018500000000
-26,1579930000000
-29,9307810000000
-29,5535020000000
-22,1965660000000
-13,5820350000000
-11,0668430000000
-13,7077950000000
-18,0465000000000
-19,8700140000000
-20,1215330000000
-21,1904900000000
-22,0079270000000
-21,1904900000000
-19,3040960000000
-19,6813750000000
-24,2716000000000
-27,8557480000000
-23,6428020000000
-21,0018500000000
-21,5048890000000
-23,7685610000000
-24,0829600000000
-24,9632770000000
-23,7685610000000
-20,5616920000000
-18,6124180000000
-18,3608990000000
-20,8132110000000
-21,4420090000000
-18,8010580000000
-17,1033030000000
-19,2412160000000
-22,1336870000000
-24,3344790000000
-24,4602390000000
-27,6042290000000
-27,4155890000000
-23,6428020000000
-21,6306480000000
-24,9632770000000
-29,0504640000000
-30,3709390000000
-29,3648630000000
-26,5981520000000
-27,1640700000000
-24,8375180000000
-23,1397630000000
-26,2837530000000
-29,3019830000000
-26,7867910000000
-24,9003970000000
-28,5474250000000
-30,5595790000000
-30,3080600000000
-32,1315740000000
-35,9672410000000
-32,3202130000000
-27,7928680000000
-27,6671080000000
-30,0565400000000
-32,8861310000000
-34,8982840000000
-33,7035680000000
-32,0686940000000
-30,3080600000000
-28,6103050000000
-26,9125510000000
-27,2898300000000
-26,2837530000000
-24,7117580000000
-26,5352720000000
-28,9875840000000
-31,7542950000000
-27,5413490000000
-23,7685610000000
-25,1519170000000
-25,4663160000000
-25,9064740000000
-28,7989450000000
-36,5960390000000
-41,6893020000000
-41,2491430000000
-37,2877160000000
-31,6914150000000
-27,5413490000000
-21,5048890000000
-20,0586540000000
-23,0768840000000
-21,6935280000000
-21,3791290000000
-24,5231190000000
-28,1701470000000
-25,7178350000000
-22,0708070000000
-23,5170420000000
-26,8496710000000
-27,5413490000000
-20,5616920000000
-18,7381780000000
-23,6428020000000
-28,9247040000000
-29,9307810000000
-26,5352720000000
-20,5616920000000
-15,8457070000000
-13,2676360000000
-17,3548220000000
-24,1458400000000
-22,0079270000000
-15,9714670000000
-14,3994720000000
-15,7199480000000
-12,5759580000000
-9,05469000000000
-12,7017180000000
-19,4927350000000
-20,7503310000000
-15,5313090000000
-13,6449150000000
-19,1154570000000
-29,3648630000000
-34,3323660000000
-34,2694860000000
-29,6792620000000
-26,7867910000000
-23,6428020000000
-25,6549550000000
-28,6103050000000
-26,2837530000000
-26,2208730000000
-30,2451800000000
-36,9733170000000
-40,2430670000000
-40,4945860000000
-38,7339520000000
-35,4013230000000
-30,3080600000000
-27,6042290000000
-30,4338190000000
-34,3323660000000
-35,1498040000000
-37,3505960000000
-38,6710720000000
-31,8171750000000
-22,9511240000000
-21,4420090000000
-26,4095120000000
-29,3648630000000
-26,2837530000000
-22,2594460000000
-28,2330260000000
-33,0118910000000
-28,8618240000000
-25,3405560000000
-26,4723920000000
-24,4602390000000
-19,4298560000000
-17,6063420000000
-20,4988120000000
-26,2837530000000
-30,8739780000000
-30,8739780000000
-27,9186270000000
-25,6549550000000
-24,9003970000000
-25,5291950000000
-23,8314410000000
-24,5859990000000
-22,2594460000000
-20,8132110000000
-24,8375180000000
-28,8618240000000
-27,9815070000000
-25,8435940000000
-26,4095120000000
-26,5352720000000
-26,2837530000000
-22,6367250000000
-21,5048890000000
-23,3284030000000
-27,1640700000000
-30,6853380000000
-30,8110980000000
-30,9368570000000
-28,6731850000000
-22,6996050000000
-21,2533700000000
-24,5231190000000
-25,7178350000000
-24,2087200000000
-24,5859990000000
-27,3527090000000
-25,4034360000000
-21,5048890000000
-21,6306480000000
-23,5799220000000
-22,1965660000000
-18,8010580000000
-18,8010580000000
-21,6306480000000
-26,3466330000000
-30,2451800000000
-29,4277420000000
-25,1519170000000
-23,7685610000000
-25,8435940000000
-26,5981520000000
-29,3019830000000
-31,4398960000000
-29,8050210000000
-28,1701470000000
-28,1701470000000
-25,2147960000000
-21,6306480000000
-19,6184950000000
-21,5048890000000
-21,1904900000000
-23,0140040000000
-29,6163820000000
-34,9611640000000
-39,9915470000000
-42,7582580000000
-36,5331590000000
-25,5920750000000
-19,4927350000000
-18,6752980000000
-23,1397630000000
-28,1701470000000
-27,8557480000000
-25,5291950000000
-26,2837530000000
-30,1194200000000
-30,3080600000000
-25,0890370000000
-21,2533700000000
-24,2716000000000
-24,9632770000000
-22,3223260000000
-21,5677690000000
-26,5981520000000
-32,7603710000000
-35,7157220000000
-31,4398960000000
-26,0322340000000
-23,8943210000000
-25,1519170000000
-27,7299880000000
-27,0383100000000
-24,5859990000000
-20,5616920000000
-18,1722600000000
-15,9085870000000
-14,1479530000000
-14,9025110000000
-18,9896970000000
-23,4541620000000
-21,9450470000000
-18,2351400000000
-21,1276100000000
-28,0443870000000
-30,2451800000000
-29,3019830000000
-26,1579930000000
-21,1276100000000
-13,3305160000000
-13,0161170000000
-20,1215330000000
-29,0504640000000
-30,3709390000000
-28,4845460000000
-30,4966990000000
-34,7725250000000
-35,2126830000000
-36,0930000000000
-41,5635420000000
-42,7582580000000
-39,4256290000000
-34,8982840000000
-34,8354050000000
-37,1619570000000
-41,3749030000000
-40,6203450000000
-32,6346120000000
-21,8192880000000
-19,3669760000000
-23,4541620000000
-25,3405560000000
-23,5170420000000
-19,8071340000000
-20,3101730000000
-26,2837530000000
-28,9875840000000
-23,7056810000000
-20,1844130000000
-21,0647300000000
-21,8192880000000
-19,0525770000000
-17,7321010000000
-21,3791290000000
-27,8557480000000
-32,5088520000000
-31,3770160000000
-29,8679010000000
-24,3973590000000
-19,6184950000000
-17,2290630000000
-19,4298560000000
-19,1154570000000
-18,4866590000000
-18,6752980000000
-18,4237790000000
-16,0972270000000
-14,3994720000000
-13,5820350000000
-15,5313090000000
-16,9775440000000
-16,2858660000000
-18,8639370000000
-25,4034360000000
-29,2391030000000
-29,8050210000000
-29,6163820000000
-25,2776760000000
-21,0018500000000
-21,1276100000000
-25,5291950000000
-25,7178350000000
-20,7503310000000
-18,9896970000000
-17,7949810000000
-22,7624850000000
-25,9693540000000
-24,7117580000000
-23,7056810000000
-28,1072670000000
-31,1254970000000
-29,1762230000000
-25,6549550000000
-29,1133440000000
-35,6528420000000
-37,4763560000000
-34,7725250000000
-28,1701470000000
-23,2655230000000
-19,5556150000000
-18,9896970000000
-24,3344790000000
-29,4906220000000
-27,4784690000000
-26,5981520000000
-26,8496710000000
-23,9572010000000
-21,4420090000000
-23,8943210000000
-31,4398960000000
-31,3770160000000
-25,2776760000000
-19,3040960000000
-20,1215330000000
-24,9632770000000
-31,6914150000000
-34,3323660000000
-30,7482180000000
-25,9693540000000
-22,8882440000000
-21,5048890000000
-20,6245720000000
-21,8821670000000
-23,7056810000000
-25,4663160000000
-26,2208730000000
-24,4602390000000
-17,9207410000000
-16,5373850000000
-18,9268170000000
-18,8639370000000
-15,5313090000000
-14,5881120000000
-20,5616920000000
-29,1762230000000
-32,9490110000000
-29,1762230000000
-27,0383100000000
-23,1397630000000
-20,3101730000000
-20,3730520000000
-24,7117580000000
-25,2776760000000
-21,7564080000000
-21,8192880000000
-24,6488780000000
-23,0768840000000
-21,2533700000000
-23,2026430000000
-25,8435940000000
-24,6488780000000
-24,0200800000000
-25,8435940000000
-24,5859990000000
-23,3284030000000
-26,6610320000000
-32,0058140000000
-31,1254970000000
-25,4663160000000
-23,0140040000000
-25,6549550000000
-31,2512560000000
-33,2634100000000
-29,7421410000000
-25,3405560000000
-27,3527090000000
-26,6610320000000
-21,6306480000000
-19,9328940000000
-23,1397630000000
-22,3223260000000
-18,1093800000000
-18,6752980000000
-23,3284030000000
-30,4966990000000
-33,6406890000000
-29,6163820000000
-23,5170420000000
-19,3669760000000
-17,4177020000000
-22,4480860000000
-30,9368570000000
-35,4642020000000
-33,4520490000000
-32,5088520000000
-34,1437270000000
-32,6974920000000
-25,5920750000000
-22,3852060000000
-26,7867910000000
-29,6792620000000
-28,1701470000000
-27,4784690000000
-30,6224590000000
-35,0240440000000
-37,3505960000000
-35,1498040000000
-30,3080600000000
-24,3973590000000
-18,8010580000000
-19,6184950000000
-22,8253640000000
-25,5920750000000
-22,0079270000000
-21,2533700000000
-25,5291950000000
-27,6671080000000
-25,7178350000000
-25,9064740000000
-27,1011900000000
-24,9003970000000
-23,7056810000000
-26,7239110000000
-31,2512560000000
-37,7907550000000
-41,8779410000000
-35,7157220000000
-25,4034360000000
-21,3162490000000
-23,5170420000000
-23,6428020000000
-22,8253640000000
-22,9511240000000
-24,7746380000000
-31,0626170000000
-36,1558800000000
-34,1437270000000
-28,8618240000000
-31,1883770000000
-35,9043610000000
-33,6406890000000
-27,1640700000000
-25,5291950000000
-28,1072670000000
-28,4216660000000
-27,6042290000000
-27,7928680000000
-26,5981520000000
-23,5799220000000
-20,1215330000000
-21,8192880000000
-25,7178350000000
-26,7239110000000
-25,4663160000000
-24,1458400000000
-24,3344790000000
-21,3791290000000
-19,9957740000000
-20,8760910000000
-22,3852060000000
-23,5799220000000
-20,6245720000000
-20,1215330000000
-24,3344790000000
-29,6792620000000
-29,8679010000000
-28,9247040000000
-29,4277420000000
-27,8557480000000
-22,8253640000000
-22,0079270000000
-22,2594460000000
-21,2533700000000
-20,0586540000000
-20,3730520000000
-23,3284030000000
-20,8760910000000
-18,9268170000000
-21,6935280000000
-25,2776760000000
-26,5981520000000
-26,2208730000000
-25,6549550000000
-30,9368570000000
-38,4195530000000
-42,0037010000000
-37,8536350000000
-34,2694860000000
-32,3830930000000
-31,6914150000000
-33,0747700000000
-31,1254970000000
-24,8375180000000
-19,9957740000000
-21,1904900000000
-21,8192880000000
-18,2351400000000
-16,4745050000000
-20,2472930000000
-25,2147960000000
-22,9511240000000
-22,5109650000000
-25,7807150000000
-28,7989450000000
-32,1944530000000
-36,7846780000000
-34,5838850000000
-26,8496710000000
-20,4359320000000
-18,2351400000000
-20,7503310000000
-25,1519170000000
-24,4602390000000
-25,5291950000000
-29,1762230000000
-31,6914150000000
-28,3587860000000
-23,4541620000000
-26,3466330000000
-28,1072670000000
-25,4034360000000
-23,0140040000000
-25,9693540000000
-28,6103050000000
-31,6914150000000
-34,3952460000000
-31,3141360000000
-24,7746380000000
-17,4805820000000
-14,9653900000000
-19,3669760000000
-25,3405560000000
-24,7117580000000
-24,5231190000000
-27,1011900000000
-26,5352720000000
-22,5738450000000
-21,6935280000000
-23,3912820000000
-24,9003970000000
-24,2716000000000
-22,6367250000000
-24,6488780000000
-25,5291950000000
-28,2959060000000
-31,1254970000000
-30,1823000000000
-25,0890370000000
-20,8760910000000
-21,6935280000000
-27,4155890000000
-29,2391030000000
-24,7117580000000
-19,9957740000000
-20,0586540000000
-23,6428020000000
-24,9003970000000
-24,2087200000000
-23,2655230000000
-24,2087200000000
-24,0829600000000
-25,7178350000000
-27,9815070000000
-27,6042290000000
-29,9307810000000
-31,7542950000000
-30,0565400000000
-25,5920750000000
-21,6935280000000
-17,6063420000000
-18,9896970000000
-20,6245720000000
-19,9957740000000
-17,8578610000000
-20,7503310000000
-23,1397630000000
-22,2594460000000
-17,4177020000000
-20,6245720000000
-24,9003970000000
-21,3791290000000
-17,3548220000000
-22,1336870000000
-30,4966990000000
-33,3262900000000
-33,0747700000000
-29,4277420000000
-25,9693540000000
-20,8132110000000
-18,9896970000000
-21,4420090000000
-23,2655230000000
-22,5109650000000
-19,9328940000000
-20,1215330000000
-25,1519170000000
-27,5413490000000
-23,2026430000000
-20,1215330000000
-19,1154570000000
-19,3669760000000
-18,1093800000000
-19,6184950000000
-21,7564080000000
-22,8253640000000
-24,1458400000000
-23,4541620000000
-20,7503310000000
-22,5109650000000
-30,0565400000000
-33,6406890000000
-33,0118910000000
-28,3587860000000
-27,1640700000000
-31,4398960000000
-35,8414810000000
-35,5270820000000
-31,8171750000000
-27,4784690000000
-25,1519170000000
-22,2594460000000
-19,4298560000000
-23,7685610000000
-32,2573330000000
-38,5453120000000
-37,9165140000000
-34,7096450000000
-32,6974920000000
-30,1194200000000
-27,2269500000000
-24,9003970000000
-21,8192880000000
-17,9207410000000
-18,4866590000000
-24,5231190000000
-28,9247040000000
-25,9064740000000
-24,9632770000000
-27,5413490000000
-27,9815070000000
-24,9003970000000
-25,1519170000000
-28,2959060000000
-32,6974920000000
-38,2309130000000
-38,8597110000000
-32,9490110000000
-24,8375180000000
-21,4420090000000
-21,0018500000000
-24,3344790000000
-24,0200800000000
-22,0708070000000
-24,1458400000000
-28,3587860000000
-29,6163820000000
-26,7239110000000
-23,9572010000000
-25,8435940000000
-31,9429340000000
-34,3952460000000
-33,8293280000000
-34,3323660000000
-36,2816400000000
-36,6589190000000
-35,0869240000000
-28,7989450000000
-25,0890370000000
-24,2716000000000
-24,9003970000000
-26,2208730000000
-24,0200800000000
-20,0586540000000
-18,9268170000000
-21,7564080000000
-23,8943210000000
-18,6124180000000
-15,4684290000000
-20,5616920000000
-26,0951140000000
-23,3912820000000
-20,4988120000000
-24,2716000000000
-31,8800540000000
-39,6771480000000
-41,6264220000000
-33,6406890000000
-23,7056810000000
-16,4745050000000
-13,9593140000000
-16,3487460000000
-21,7564080000000
-22,3852060000000
-22,5738450000000
-25,4663160000000
-26,5352720000000
-20,6874510000000
-16,0343470000000
-20,6874510000000
-26,4723920000000
-26,4723920000000
-22,5738450000000
-23,0140040000000
-26,9125510000000
-30,6224590000000
-30,5595790000000
-26,2837530000000
-20,4988120000000
-16,4745050000000
-16,2858660000000
-18,5495390000000
-19,9328940000000
-19,5556150000000
-19,9328940000000
-22,3852060000000
-26,0951140000000
-25,7807150000000
-25,4034360000000
-26,3466330000000
-26,0951140000000
-21,3791290000000
-20,0586540000000
-25,4034360000000
-31,8171750000000
-34,7096450000000
-32,8232510000000
-27,9815070000000
-19,6813750000000
-15,2169100000000
-14,6509910000000
-19,7442550000000
-23,0140040000000
-20,6874510000000
-20,4988120000000
-26,9125510000000
-28,9247040000000
-27,1640700000000
-30,6224590000000
-36,7846780000000
-40,1801870000000
-38,0422740000000
-37,2877160000000
-39,5513890000000
-41,3749030000000
-43,4499360000000
-42,4438590000000
-36,2816400000000
-29,7421410000000
-26,4723920000000
-29,3019830000000
-37,2248370000000
-40,3059460000000
-38,4195530000000
-37,1619570000000
-37,2877160000000
-31,0626170000000
-23,2026430000000
-20,6874510000000
-25,5291950000000
-25,0890370000000
-21,6306480000000
-22,0708070000000
-27,5413490000000
-29,0504640000000
-26,5981520000000
-25,7807150000000
-22,3852060000000
-17,9207410000000
-15,9714670000000
-17,3548220000000
-18,3608990000000
-17,3548220000000
-16,3487460000000
-20,9389710000000
-28,4216660000000
-28,7989450000000
-24,4602390000000
-23,1397630000000
-27,6042290000000
-27,6042290000000
-23,7056810000000
-24,0829600000000
-28,4845460000000
-30,4966990000000
-31,8171750000000
-33,0118910000000
-27,6042290000000
-19,3040960000000
-16,3487460000000
-20,4359320000000
-25,5920750000000
-25,3405560000000
-22,1336870000000
-22,8882440000000
-21,8821670000000
-17,9836200000000
-14,5881120000000
-13,1418760000000
-17,3548220000000
-19,4927350000000
-20,2472930000000
-21,1276100000000
-21,4420090000000
-21,1276100000000
-22,8882440000000
-25,5920750000000
-26,1579930000000
-23,3912820000000
-19,4927350000000
-19,7442550000000
-24,0829600000000
-23,5799220000000
-20,7503310000000
-19,9957740000000
-21,8821670000000
-24,0829600000000
-24,2087200000000
-26,6610320000000
-27,3527090000000
-27,7299880000000
-25,8435940000000
-28,5474250000000
-31,3141360000000
-33,2634100000000
-31,3770160000000
-27,1011900000000
-22,8253640000000
-17,2919430000000
-15,4684290000000
-18,6124180000000
-22,2594460000000
-22,5109650000000
-20,8132110000000
-20,3730520000000
-22,8882440000000
-25,5291950000000
-24,9632770000000
-22,7624850000000
-23,2655230000000
-24,8375180000000
-26,4095120000000
-29,1762230000000
-31,9429340000000
-33,3891690000000
-31,9429340000000
-28,3587860000000
-24,9632770000000
-25,7178350000000
-22,7624850000000
-19,8700140000000
-20,2472930000000
-23,0140040000000
-24,6488780000000
-25,2147960000000
-25,6549550000000
-22,0708070000000
-18,1093800000000
-18,7381780000000
-19,9957740000000
-18,4866590000000
-17,6692210000000
-24,2716000000000
-33,7035680000000
-37,4763560000000
-35,4013230000000
-31,5027760000000
-25,9693540000000
-21,0647300000000
-21,6306480000000
-27,6671080000000
-29,2391030000000
-22,7624850000000
-15,6570680000000
-19,1154570000000
-29,4906220000000
-35,1498040000000
-34,3323660000000
-33,7664480000000
-34,2694860000000
-32,3202130000000
-27,0383100000000
-25,2776760000000
-32,8232510000000
-43,3870560000000
-48,1030410000000
-42,5067390000000
-35,8414810000000
-30,8110980000000
-27,3527090000000
-28,4216660000000
-30,9997370000000
-28,0443870000000
-22,6367250000000
-23,0140040000000
-26,3466330000000
-22,6996050000000
-16,2229860000000
-18,0465000000000
-27,1640700000000
-28,4845460000000
-23,8943210000000
-24,5859990000000
-30,2451800000000
-32,8232510000000
-30,9997370000000
-28,4845460000000
-23,5170420000000
-20,2472930000000
-22,5738450000000
-25,6549550000000
-28,7360650000000
-27,7299880000000
-28,2330260000000
-27,1640700000000
-26,6610320000000
-25,7178350000000
-23,3284030000000
-21,3791290000000
-23,0140040000000
-22,0079270000000
-18,2351400000000
-17,6063420000000
-18,9268170000000
-23,5799220000000
-30,3709390000000
-32,9490110000000
-29,4277420000000
-24,1458400000000
-21,0018500000000
-21,6306480000000
-22,8253640000000
-23,1397630000000
-23,5170420000000
-24,4602390000000
-24,0829600000000
-19,7442550000000
-17,9836200000000
-19,9957740000000
-23,2655230000000
-16,9146640000000
-16,2858660000000
-26,5981520000000
-36,0301210000000
-38,3566730000000
-36,8475580000000
-32,5717320000000
-24,9632770000000
-18,3608990000000
-20,0586540000000
-26,5352720000000
-26,0322340000000
-21,9450470000000
-21,8821670000000
-29,4277420000000
-34,0808470000000
-31,1883770000000
-26,0322340000000
-28,6731850000000
-32,0686940000000
-25,8435940000000
-19,1154570000000
-21,3162490000000
-27,7299880000000
-27,2898300000000
-23,6428020000000
-19,3040960000000
-13,8335540000000
-8,36301200000000
-11,9471600000000
-21,1904900000000
-24,5231190000000
-21,3791290000000
-19,4298560000000
-25,0890370000000
-28,3587860000000
-22,0079270000000
-11,8214010000000
-11,7585210000000
-16,0972270000000
-18,2980190000000
-21,6935280000000
-33,9550870000000
-48,7947180000000
-57,5978890000000
-57,3463700000000
-49,1719970000000
-37,4763560000000
-28,9247040000000
-25,2147960000000
-25,0890370000000
-26,0322340000000
-24,3344790000000
-19,9957740000000
-19,1783360000000
-21,8192880000000
-24,5859990000000
-25,8435940000000
-24,8375180000000
-23,0140040000000
-20,4359320000000
-16,6002650000000
-19,4298560000000
-29,4906220000000
-39,8657880000000
-39,8657880000000
-32,5088520000000
-25,5920750000000
-24,5859990000000
-27,8557480000000
-35,0240440000000
-37,6649950000000
-32,3830930000000
-28,6103050000000
-29,3648630000000
-29,8679010000000
-26,7867910000000
-23,8943210000000
-24,0200800000000
-25,3405560000000
-22,7624850000000
-22,3852060000000
-25,6549550000000
-29,0504640000000
-29,4906220000000
-27,3527090000000
-20,6245720000000
-7,48269500000000
1,76063400000000
-0,440159000000000
-6,79101700000000
-8,04861300000000
-6,47661900000000
-6,66525800000000
-15,1540300000000
-20,7503310000000
-19,8700140000000
-22,8882440000000
-28,2330260000000
-30,0565400000000
-31,1254970000000
-34,6467650000000
-37,2248370000000
-39,9915470000000
-43,6385750000000
-47,2227230000000
-44,4560130000000
-39,7400280000000
-37,6649950000000
-39,2369900000000
-39,4885090000000
-37,4134760000000
-35,3384430000000
-34,2694860000000
-35,0240440000000
-31,3770160000000
-25,4034360000000
-24,3973590000000
-30,1194200000000
-30,9368570000000
-25,4663160000000
-20,3730520000000
-21,7564080000000
-25,9064740000000
-29,9307810000000
-29,8050210000000
-23,8314410000000
-18,1093800000000
-14,0221940000000
-13,5820350000000
-16,6002650000000
-18,6124180000000
-17,1033030000000
-15,4055490000000
-15,4055490000000
-15,7199480000000
-14,4623520000000
-14,4623520000000
-18,3608990000000
-21,8192880000000
-21,0647300000000
-19,0525770000000
-21,7564080000000
-25,9693540000000
-28,7989450000000
-27,8557480000000
-26,4723920000000
-24,3973590000000
-20,3730520000000
-19,1154570000000
-25,6549550000000
-30,8739780000000
-26,1579930000000
-23,6428020000000
-23,8314410000000
-23,7685610000000
-23,2655230000000
-24,9003970000000
-24,3344790000000
-23,7685610000000
-21,3162490000000
-21,0647300000000
-25,3405560000000
-30,4338190000000
-30,2451800000000
-28,4845460000000
-24,8375180000000
-23,5799220000000
-24,9632770000000
-25,6549550000000
-27,4155890000000
-29,3019830000000
-26,1579930000000
-22,6367250000000
-25,0261570000000
-27,0383100000000
-25,2147960000000
-28,7360650000000
-31,1883770000000
-29,3648630000000
-24,8375180000000
-22,5738450000000
-24,2716000000000
-29,7421410000000
-33,7664480000000
-33,5778090000000
-28,2959060000000
-22,6367250000000
-18,2980190000000
-13,8335540000000
-11,1297230000000
-14,7138710000000
-18,4237790000000
-21,1276100000000
-24,8375180000000
-21,3162490000000
-16,7260250000000
-19,4927350000000
-24,4602390000000
-22,1336870000000
-20,6245720000000
-22,9511240000000
-26,8496710000000
-34,0808470000000
-37,1619570000000
-35,9043610000000
-29,8050210000000
-27,0383100000000
-26,5352720000000
-26,0322340000000
-25,9064740000000
-28,4845460000000
-28,9247040000000
-32,6346120000000
-36,9104380000000
-33,4520490000000
-25,5291950000000
-22,5109650000000
-23,2655230000000
-24,5859990000000
-25,6549550000000
-25,8435940000000
-28,6103050000000
-32,1315740000000
-33,5149290000000
-29,6792620000000
-21,8821670000000
-17,2919430000000
-18,3608990000000
-22,1965660000000
-24,7117580000000
-23,5799220000000
-22,3852060000000
-27,0383100000000
-32,4459720000000
-32,4459720000000
-29,6792620000000
-28,3587860000000
-27,5413490000000
-24,9003970000000
-23,0140040000000
-26,3466330000000
-28,3587860000000
-29,3648630000000
-28,7360650000000
-26,8496710000000
-26,1579930000000
-24,5231190000000
-20,9389710000000
-18,4866590000000
-21,0647300000000
-22,8882440000000
-19,4927350000000
-16,2858660000000
-16,5373850000000
-17,7321010000000
-16,9146640000000
-19,4927350000000
-25,2147960000000
-28,3587860000000
-27,3527090000000
-29,6163820000000
-32,6346120000000
-33,9550870000000
-33,5778090000000
-32,3202130000000
-29,8050210000000
-28,8618240000000
-29,8679010000000
-30,9368570000000
-28,9875840000000
-25,4034360000000
-25,9064740000000
-30,3709390000000
-34,5210060000000
-32,0058140000000
-30,5595790000000
-34,7096450000000
-38,7968310000000
-38,7339520000000
-35,7786010000000
-33,4520490000000
-36,1558800000000
-37,3505960000000
-32,8861310000000
-28,5474250000000
-23,6428020000000
-21,4420090000000
-22,6996050000000
-25,9693540000000
-27,4155890000000
-25,5291950000000
-25,5920750000000
-28,7360650000000
-29,5535020000000
-24,2716000000000
-19,6813750000000
-25,4663160000000
-32,9490110000000
-29,3648630000000
-23,8943210000000
-27,0383100000000
-33,2634100000000
-34,0179670000000
-31,8171750000000
-27,4155890000000
-22,1336870000000
-17,4177020000000
-19,5556150000000
-23,6428020000000
-23,4541620000000
-20,3101730000000
-19,8071340000000
-24,9003970000000
-29,3019830000000
-29,2391030000000
-24,2716000000000
-23,5170420000000
-24,6488780000000
-23,0768840000000
-21,1276100000000
-23,2026430000000
-28,7989450000000
-34,5838850000000
-37,5392360000000
-35,5270820000000
-33,5149290000000
-31,6285350000000
-29,7421410000000
-30,7482180000000
-32,5088520000000
-28,9247040000000
-26,3466330000000
-26,4723920000000
-27,2898300000000
-21,8192880000000
-19,6184950000000
-22,8253640000000
-25,5291950000000
-23,8314410000000
-20,0586540000000
-20,0586540000000
-22,6996050000000
-27,3527090000000
-29,8679010000000
-28,4216660000000
-20,3101730000000
-13,4562750000000
-12,2615590000000
-13,9593140000000
-15,7199480000000
-14,2108330000000
-13,5820350000000
-16,2229860000000
-17,6692210000000
-14,3365920000000
-11,9471600000000
-13,6449150000000
-17,6692210000000
-15,6570680000000
-12,7017180000000
-13,8335540000000
-20,3101730000000
-26,0322340000000
-27,6671080000000
-26,2837530000000
-18,7381780000000
-13,8335540000000
-17,4805820000000
-23,5799220000000
-23,5799220000000
-23,5170420000000
-26,4095120000000
-25,9693540000000
-21,3791290000000
-16,0343470000000
-15,5313090000000
-20,8760910000000
-28,2959060000000
-29,4277420000000
-26,0322340000000
-24,4602390000000
-26,9125510000000
-30,9368570000000
-37,6649950000000
-37,0361970000000
-28,8618240000000
-23,7685610000000
-26,9125510000000
-32,3202130000000
-33,3262900000000
-31,1883770000000
-30,1194200000000
-31,6285350000000
-30,0565400000000
-27,5413490000000
-25,4663160000000
-27,1640700000000
-29,3019830000000
-28,5474250000000
-27,2269500000000
-30,3080600000000
-34,9611640000000
-40,2430670000000
-41,6264220000000
-35,2126830000000
-26,4095120000000
-20,3730520000000
-20,1844130000000
-20,2472930000000
-19,7442550000000
-17,5434620000000
-19,9957740000000
-26,0322340000000
-28,6103050000000
-25,4034360000000
-25,2147960000000
-28,7989450000000
-24,4602390000000
-19,3040960000000
-18,9268170000000
-20,9389710000000
-21,3791290000000
-27,6671080000000
-31,2512560000000
-26,0322340000000
-18,9268170000000
-17,2290630000000
-19,9328940000000
-24,9632770000000
-31,2512560000000
-35,2126830000000
-37,9793940000000
-41,1233840000000
-40,4945860000000
-32,3830930000000
-27,9815070000000
-30,3080600000000
-32,6346120000000
-29,5535020000000
-28,9247040000000
-28,1072670000000
-30,9368570000000
-37,5392360000000
-40,5574660000000
-41,5006620000000
-36,9104380000000
-28,9875840000000
-24,8375180000000
-24,9003970000000
-18,2980190000000
-9,30620900000000
-4,90462400000000
-5,97358000000000
-5,21902300000000
-2,76671100000000
-3,01823000000000
-7,29405600000000
-10,8153240000000
-8,04861300000000
-6,97965700000000
-9,93500700000000
-17,2290630000000
-27,1011900000000
-31,8800540000000
-31,1254970000000
-29,9307810000000
-31,6285350000000
-36,8475580000000
-43,3870560000000
-43,7014550000000
-41,0605040000000
-40,7461050000000
-45,2105700000000
-43,7643350000000
-37,6649950000000
-32,5088520000000
-33,9550870000000
-31,4398960000000
-23,6428020000000
-18,1722600000000
-18,2980190000000
-25,2147960000000
-33,0118910000000
-36,9733170000000
-36,4702790000000
-35,7786010000000
-35,5899620000000
-38,1680340000000
-42,3809800000000
-40,8089850000000
-34,9611640000000
-33,0118910000000
-33,8922080000000
-30,8110980000000
-26,1579930000000
-23,5799220000000
-21,3791290000000
-16,5373850000000
-11,6956410000000
-9,87212700000000
-14,0850730000000
-18,4866590000000
-19,3669760000000
-15,0282700000000
-11,8214010000000
-7,29405600000000
-5,47054200000000
-11,6956410000000
-19,5556150000000
-23,7056810000000
-25,0261570000000
-29,0504640000000
-33,8293280000000
-31,7542950000000
-29,1762230000000
-27,9186270000000
-26,7239110000000
-24,0829600000000
-16,3487460000000
-12,9532370000000
-15,8457070000000
-20,4359320000000
-22,6367250000000
-20,7503310000000
-16,9146640000000
-11,0039640000000
-11,2554830000000
-11,6327610000000
-10,5638050000000
-7,67133500000000
-8,74029100000000
-12,5759580000000
-18,3608990000000
-23,0140040000000
-23,5799220000000
-25,0890370000000
-28,3587860000000
-26,8496710000000
-25,6549550000000
-24,7117580000000
-24,2087200000000
-27,2898300000000
-29,4277420000000
-27,7299880000000
-24,6488780000000
-21,8821670000000
-20,8760910000000
-20,7503310000000
-22,1336870000000
-20,7503310000000
-20,3101730000000
-18,6124180000000
-19,8700140000000
-20,1215330000000
-18,4237790000000
-17,6692210000000
-22,7624850000000
-25,8435940000000
-19,7442550000000
-13,2047560000000
-15,9714670000000
-23,7685610000000
-29,1133440000000
-27,7299880000000
-22,9511240000000
-24,6488780000000
-28,0443870000000
-31,1883770000000
-33,9550870000000
-36,7846780000000
-39,5513890000000
-45,9022480000000
-50,4295930000000
-48,8575980000000
-44,2044930000000
-41,3120230000000
-45,4620890000000
-47,6000020000000
-45,7764880000000
-44,7704120000000
-49,9894340000000
-56,4660530000000
-59,1698840000000
-55,3342170000000
-48,1659200000000
-40,2430670000000
-35,7786010000000
-37,7907550000000
-44,4560130000000
-47,4742430000000
-46,2795270000000
-45,3992100000000
-43,7014550000000
-37,5392360000000
-29,5535020000000
-27,9815070000000
-29,3648630000000
-25,8435940000000
-23,3284030000000
-27,6671080000000
-35,4642020000000
-37,9165140000000
-34,5210060000000
-29,9936610000000
-24,7117580000000
-17,6063420000000
-11,0039640000000
-10,1865260000000
-18,9896970000000
-23,8314410000000
-20,6245720000000
-18,3608990000000
-19,5556150000000
-14,2737130000000
-4,59022500000000
-4,59022500000000
-7,85997400000000
-5,15614300000000
0,880317000000000
-0,943197000000000
-7,54557500000000
-14,4623520000000
-18,1093800000000
-17,4177020000000
-11,4441220000000
-4,71598400000000
-4,77886400000000
-13,2676360000000
-21,3791290000000
-20,0586540000000
-18,2351400000000
-24,5859990000000
-33,8293280000000
-33,2634100000000
-28,4216660000000
-29,5535020000000
-37,1619570000000
-41,8779410000000
-43,2612970000000
-47,4113630000000
-54,2023800000000
-65,4578630000000
-70,6768860000000
-64,7033060000000
-50,2409530000000
-40,9347440000000
-39,1112300000000
-38,3566730000000
-30,8739780000000
-20,1215330000000
-12,5130790000000
-12,3873190000000
-11,0668430000000
-2,38943200000000
6,09934000000000
5,78494100000000
0,440159000000000
-0,754557000000000
-0,440159000000000
-2,95535000000000
-10,6266850000000
-19,3040960000000
-25,9693540000000
-27,2898300000000
-19,4298560000000
-7,73421400000000
-2,82959100000000
-4,40158500000000
-1,50911500000000
3,08111000000000
3,33262900000000
-1,19471600000000
-2,01215300000000
-1,25759600000000
-3,14399000000000
-10,1236460000000
-18,9268170000000
-21,6935280000000
-20,7503310000000
-25,7178350000000
-35,7786010000000
-44,9590510000000
-51,7500680000000
-55,5228560000000
-53,9508610000000
-48,9204780000000
-49,2348770000000
-51,0583910000000
-50,8697510000000
-46,9083250000000
-42,2552200000000
-39,1741100000000
-35,4013230000000
-28,0443870000000
-20,8760910000000
-19,7442550000000
-19,3040960000000
-15,4055490000000
-10,3751660000000
-8,42589200000000
-11,5070020000000
-17,2919430000000
-16,2858660000000
-7,54557500000000
3,39550900000000
7,98573400000000
11,1926030000000
12,6388380000000
10,6895650000000
9,93500700000000
8,55165200000000
2,26367200000000
-4,96750400000000
-7,10541600000000
-10,5009250000000
-15,7199480000000
-15,9085870000000
-12,0100400000000
-9,11757000000000
-12,0729200000000
-17,2919430000000
-24,7746380000000
-30,6853380000000
-35,5270820000000
-35,4013230000000
-32,0058140000000
-32,5088520000000
-39,3627500000000
-43,4499360000000
-42,7582580000000
-43,6385750000000
-51,9387080000000
-58,2266870000000
-54,0766210000000
-48,8575980000000
-48,4803190000000
-50,7439920000000
-51,1841500000000
-54,2023800000000
-59,5471630000000
-67,5957760000000
-76,5247060000000
-84,0074020000000
-84,5733200000000
-80,6118930000000
-79,9202150000000
-79,9830950000000
-79,6686960000000
-78,2853410000000
-73,8208750000000
-66,3381800000000
-61,9365950000000
-56,4031730000000
-48,2288000000000
-37,9165140000000
-35,7157220000000
-36,4702790000000
-31,7542950000000
-24,4602390000000
-22,5109650000000
-23,6428020000000
-20,2472930000000
-13,3933960000000
-6,79101700000000
-3,39550900000000
-0,251519000000000
-1,06895600000000
-4,27582600000000
-3,45838900000000
3,77278700000000
5,65918100000000
-0,817437000000000
-7,16829600000000
-9,11757000000000
-12,3244390000000
-20,8132110000000
-26,7867910000000
-26,5981520000000
-30,1194200000000
-40,4317060000000
-45,7136080000000
-45,5878490000000
-44,2673730000000
-37,3505960000000
-26,2208730000000
-15,5941880000000
-9,74636800000000
-6,60237800000000
-5,40766200000000
-0,754557000000000
5,09326300000000
4,65310500000000
1,38335500000000
0,691678000000000
1,19471600000000
-1,06895600000000
-0,314399000000000
7,48269500000000
6,47661900000000
-6,35085900000000
-17,9836200000000
-24,9632770000000
-28,7989450000000
-29,5535020000000
-27,8557480000000
-28,7989450000000
-31,6914150000000
-34,8982840000000
-30,6224590000000
-20,8132110000000
-16,1601060000000
-24,1458400000000
-34,8982840000000
-36,7846780000000
-38,1680340000000
-43,0726570000000
-45,3992100000000
-36,5331590000000
-28,3587860000000
-26,1579930000000
-31,1883770000000
-40,5574660000000
-47,2856030000000
-46,5310460000000
-44,8332910000000
-42,9468980000000
-43,8900950000000
-46,5310460000000
-42,0665810000000
-34,2066070000000
-34,6467650000000
-41,2491430000000
-45,2734500000000
-47,2227230000000
-51,1841500000000
-55,9001350000000
-56,7175720000000
-52,0015880000000
-48,9204780000000
-52,1273470000000
-56,5918120000000
-57,0319710000000
-53,5735820000000
-46,0280070000000
-36,5960390000000
-23,5799220000000
-16,2858660000000
-15,5313090000000
-15,2169100000000
-11,6956410000000
-11,8214010000000
-16,9775440000000
-18,9268170000000
-13,9593140000000
-9,80924700000000
-12,4501990000000
-9,55772800000000
-0,503038000000000
6,03646000000000
9,30620900000000
12,4501990000000
18,4866590000000
28,9875840000000
40,3059460000000
48,9204780000000
56,2774130000000
62,5025130000000
67,0927380000000
67,7215360000000
68,2874540000000
69,2935300000000
67,0298580000000
65,2692240000000
70,6140060000000
77,5307830000000
75,5815100000000
63,9487480000000
50,1151940000000
33,4520490000000
15,7199480000000
2,20079300000000
-9,05469000000000
-17,2290630000000
-20,3101730000000
-20,6245720000000
-27,9186270000000
-43,0097770000000
-60,6161190000000
-74,8269520000000
-88,0317080000000
-99,7273490000000
-106,455487000000
-109,913876000000
-105,952449000000
-96,6462400000000
-86,8998720000000
-79,4171770000000
-67,9101750000000
-50,2409530000000
-32,4459720000000
-19,4927350000000
-2,57807100000000
21,6935280000000
51,3099100000000
75,5186300000000
87,4657900000000
84,0074020000000
72,1860010000000
58,9183650000000
41,9408210000000
19,7442550000000
-10,7524440000000
-39,9915470000000
-67,5957760000000
-96,2060810000000
-123,370151000000
-144,623521000000
-155,375965000000
-158,645714000000
-158,016916000000
-156,570681000000
-151,540298000000
-139,781777000000
-119,345844000000
-99,2243110000000
-85,9566750000000
-77,9080620000000
-68,4760930000000
-61,5593160000000
-58,2266870000000
-60,0502010000000
-60,6161190000000
-57,5978890000000
-54,9569380000000
-50,8068720000000
-39,6142690000000
-22,0079270000000
-8,55165200000000
-2,32655200000000
-4,46446500000000
-9,93500700000000
-17,7321010000000
-23,8943210000000
-18,1722600000000
0,503038000000000
20,8132110000000
29,6163820000000
31,4398960000000
32,3830930000000
32,5717320000000
31,0626170000000
26,9125510000000
18,9896970000000
9,49484900000000
-5,97358000000000
-24,7117580000000
-45,4620890000000
-64,9548250000000
-87,4029100000000
-109,222198000000
-123,936069000000
-134,499874000000
-142,045449000000
-144,372002000000
-139,278738000000
-130,852846000000
-118,654167000000
-100,167508000000
-77,4679030000000
-53,2591830000000
-41,3120230000000
-41,8150610000000
-40,2430670000000
-36,3445200000000
-39,4256290000000
-41,1862630000000
-32,1315740000000
-12,7645980000000
0,565918000000000
0,565918000000000
-4,46446500000000
2,95535000000000
15,6570680000000
26,1579930000000
31,3141360000000
32,4459720000000
28,2959060000000
23,7685610000000
25,9064740000000
31,1883770000000
37,7907550000000
41,6893020000000
40,3059460000000
33,7664480000000
25,2776760000000
22,0708070000000
23,5170420000000
27,4784690000000
24,3344790000000
12,7017180000000
-3,77278700000000
-14,6509910000000
-15,5941880000000
-2,89247000000000
10,8153240000000
18,9896970000000
19,6184950000000
14,7767510000000
8,23725300000000
-0,503038000000000
-9,11757000000000
-15,9714670000000
-16,8517840000000
-19,9328940000000
-24,9632770000000
-28,7360650000000
-28,2959060000000
-24,7746380000000
-18,3608990000000
-14,0850730000000
-14,8396310000000
-17,6692210000000
-23,2026430000000
-26,5352720000000
-31,1883770000000
-43,3870560000000
-56,3402930000000
-58,3524470000000
-47,2856030000000
-25,6549550000000
-7,35693600000000
6,09934000000000
20,8760910000000
36,2187600000000
40,4317060000000
38,7968310000000
40,7461050000000
38,0422740000000
32,6346120000000
24,3344790000000
13,5191550000000
4,65310500000000
-0,817437000000000
-4,21294600000000
-5,21902300000000
-8,86605100000000
-16,2858660000000
-26,7867910000000
-34,4581260000000
-37,6649950000000
-42,3181000000000
-46,9083250000000
-50,2409530000000
-59,1070040000000
-76,5247060000000
-90,4840200000000
-92,9992120000000
-84,5733200000000
-79,1656580000000
-82,0581280000000
-85,8309160000000
-81,3664500000000
-63,8858680000000
-44,1416140000000
-27,4155890000000
-14,5252320000000
-1,82351400000000
13,1418760000000
27,6042290000000
33,6406890000000
25,6549550000000
11,0668430000000
-0,628798000000000
-13,3933960000000
-27,6042290000000
-37,5392360000000
-40,2430670000000
-41,8779410000000
-56,9690910000000
-76,5875860000000
-87,4657900000000
-92,2446540000000
-105,197891000000
-125,885343000000
-143,303045000000
-153,929730000000
-154,935807000000
-133,242278000000
-99,4129510000000
-79,5429360000000
-74,8898320000000
-68,5389730000000
-51,4985490000000
-39,9286680000000
-44,7704120000000
-63,5085900000000
-84,1331610000000
-105,889569000000
-130,161169000000
-148,396308000000
-149,528144000000
-138,712820000000
-129,343731000000
-121,546637000000
-100,607667000000
-57,0948510000000
-13,0789970000000
21,0018500000000
48,5431990000000
67,5328960000000
72,6890390000000
71,1170440000000
73,4435970000000
82,2467670000000
91,8673760000000
100,922066000000
105,826689000000
97,3379170000000
85,3907570000000
78,9141380000000
73,5693560000000
65,0177050000000
62,8169120000000
63,1313110000000
57,4092500000000
45,4620890000000
38,6081920000000
37,4134760000000
29,8679010000000
12,9532370000000
-4,33870600000000
-14,6509910000000
-22,4480860000000
-11,4441220000000
43,4499360000000
115,761696000000
167,826164000000
191,468965000000
193,229600000000
193,795518000000
206,371476000000
214,671609000000
193,229600000000
131,544524000000
49,6121560000000
-45,4620890000000
-153,992610000000
-262,082971000000
-346,090373000000
-409,158804000000
-454,998172000000
-473,484831000000
-466,945332000000
-452,860259000000
-431,292491000000
-397,714682000000
-362,753518000000
-329,993146000000
-303,269235000000
-286,606090000000
-277,111242000000
-263,969365000000
-243,722072000000
-222,342943000000
-201,844131000000
-177,069493000000
-148,144789000000
-112,869226000000
-67,9101750000000
-22,8882440000000
18,9896970000000
56,2145340000000
78,4111000000000
74,5125530000000
52,5046260000000
21,0018500000000
-7,16829600000000
-30,8739780000000
-53,8879810000000
-57,3463700000000
-19,6184950000000
49,2977570000000
115,573057000000
170,152716000000
242,087198000000
338,230399000000
417,647576000000
454,558013000000
452,671620000000
424,124194000000
376,146913000000
317,668707000000
261,579933000000
225,675572000000
198,700141000000
158,834354000000
107,335804000000
52,0644670000000
0,943197000000000
-50,3667130000000
-104,443334000000
-158,897233000000
-198,071344000000
-215,237527000000
-222,720222000000
-229,385480000000
-229,385480000000
-212,973854000000
-153,300932000000
-15,4684290000000
143,240165000000
240,200804000000
260,259457000000
237,182574000000
208,069230000000
192,600802000000
178,452849000000
140,599214000000
85,8309160000000
34,6467650000000
-11,0668430000000
-32,6346120000000
2,82959100000000
67,7215360000000
117,710970000000
140,787853000000
157,639638000000
172,542148000000
178,955887000000
157,639638000000
107,713083000000
48,2916800000000
-5,53342200000000
-53,5735820000000
-94,0681680000000
-124,124709000000
-151,100139000000
-182,477155000000
-217,186800000000
-252,902522000000
-289,624320000000
-326,849157000000
-361,684561000000
-398,783638000000
-446,886679000000
-506,433842000000
-556,611915000000
-564,094610000000
-516,117329000000
-439,466863000000
-352,504112000000
-255,920752000000
-144,812160000000
-30,6853380000000
73,8208750000000
142,674247000000
160,029070000000
138,398421000000
100,041748000000
50,3038330000000
-6,28797900000000
-60,4274800000000
-99,2871910000000
-116,201855000000
-115,070019000000
-108,404761000000
-96,5204800000000
-75,3299900000000
-56,0887740000000
-44,2673730000000
-33,0118910000000
0,628798000000000
76,2103070000000
193,418239000000
309,431454000000
370,739251000000
372,562765000000
337,978880000000
278,368837000000
192,852321000000
104,757733000000
35,7786010000000
-17,7321010000000
-66,5268200000000
-103,877416000000
-116,327614000000
-98,4068740000000
-65,0805840000000
-45,7764880000000
-63,1941910000000
-101,173585000000
-137,266585000000
-177,509652000000
-222,720222000000
-250,953248000000
-256,109391000000
-252,336604000000
-246,300144000000
-237,559853000000
-223,286140000000
-212,030657000000
-202,284290000000
-187,507539000000
-165,876890000000
-144,686400000000
-132,676360000000
-116,076095000000
-91,6158560000000
-70,7397660000000
-63,7601090000000
-58,7926050000000
-35,8414810000000
-4,33870600000000
5,65918100000000
-2,38943200000000
-8,23725300000000
-4,40158500000000
-6,85389700000000
-12,1358000000000
-8,86605100000000
5,03038300000000
25,9064740000000
38,1680340000000
39,6142690000000
44,3302530000000
60,8047580000000
82,1838880000000
102,305421000000
112,429067000000
111,171472000000
106,581247000000
97,0235180000000
93,1249710000000
123,307271000000
190,211370000000
263,277687000000
326,220359000000
382,497772000000
429,154578000000
455,564090000000
462,355108000000
458,267921000000
445,063165000000
414,943745000000
372,311246000000
321,944533000000
265,478480000000
214,105690000000
169,272399000000
130,978606000000
100,859186000000
83,3786040000000
70,4253670000000
49,7379150000000
13,4562750000000
-26,3466330000000
-62,5025130000000
-100,859186000000
-136,700667000000
-173,611105000000
-207,943471000000
-230,328677000000
-233,284027000000
-227,247567000000
-221,148227000000
-220,205030000000
-227,624846000000
-235,799219000000
-244,036471000000
-262,082971000000
-281,198428000000
-289,498561000000
-290,693277000000
-299,182048000000
-312,512564000000
-311,066329000000
-292,956949000000
-271,452060000000
-258,750342000000
-250,135811000000
-231,020354000000
-184,677948000000
-101,739503000000
40,4317060000000
272,709656000000
597,923938000000
928,797402000000
1127,62330300000
1150,32290800000
1047,32580900000
892,264243000000
719,030417000000
532,151676000000
339,991033000000
220,456549000000
196,184950000000
173,548225000000
101,739503000000
10,9410840000000
-75,5815100000000
-159,651791000000
-258,687463000000
-376,021154000000
-497,567791000000
-609,053661000000
-702,052873000000
-774,113114000000
-820,266881000000
-850,952220000000
-879,373886000000
-898,740861000000
-905,720518000000
-908,990267000000
-916,410083000000
-920,308630000000
-917,856318000000
-915,718405000000
-919,051034000000
-921,126067000000
-911,945618000000
-890,943767000000
-873,023027000000
-852,335575000000
-821,398718000000
-786,311794000000
-745,251290000000
-693,689861000000
-627,288801000000
-562,962774000000
-524,920500000000
-495,429878000000
-439,969902000000
-345,650214000000
-194,361436000000
38,9225910000000
304,086672000000
504,107289000000
621,000822000000
709,598448000000
785,242838000000
820,015362000000
813,538744000000
793,039932000000
766,316020000000
722,991844000000
660,112052000000
592,138997000000
534,352469000000
489,707817000000
443,365411000000
403,059464000000
375,832514000000
353,761708000000
328,735550000000
306,538984000000
289,750080000000
275,413487000000
267,176235000000
263,214808000000
260,385217000000
265,604240000000
280,380991000000
293,208468000000
284,531057000000
258,813222000000
238,440170000000
227,121807000000
211,401859000000
183,483232000000
147,201592000000
115,195778000000
84,7619590000000
36,9733170000000
-26,5352720000000
-71,9344820000000
-92,7476930000000
-115,195778000000
-142,862887000000
-156,633561000000
-147,704630000000
-126,199742000000
-95,1371250000000
-60,4903600000000
-27,6671080000000
-7,29405600000000
-2,57807100000000
0,754557000000000
14,2108330000000
39,2369900000000
64,0116280000000
85,4536370000000
106,266848000000
119,723123000000
122,426954000000
124,627747000000
126,073982000000
127,520217000000
129,846770000000
127,394458000000
110,731313000000
95,3257640000000
93,3764910000000
102,871339000000
118,842806000000
135,191552000000
143,240165000000
147,327352000000
150,534221000000
144,749280000000
127,520217000000
103,877416000000
82,1210080000000
62,3767530000000
39,5513890000000
18,3608990000000
0,440159000000000
-2,07503300000000
28,0443870000000
113,435144000000
276,922602000000
493,354845000000
692,306506000000
801,717343000000
801,151425000000
718,338739000000
589,812445000000
451,036745000000
314,147439000000
165,625371000000
-5,28190200000000
-177,509652000000
-320,624057000000
-434,625120000000
-523,537145000000
-591,447320000000
-636,657890000000
-664,450758000000
-679,604788000000
-691,363309000000
-702,681671000000
-707,146136000000
-700,166479000000
-684,257892000000
-670,675857000000
-661,935566000000
-642,191312000000
-605,595273000000
-573,589459000000
-561,516539000000
-558,749828000000
-551,958811000000
-547,179947000000
-544,161717000000
-540,703328000000
-526,303856000000
-506,748241000000
-486,878226000000
-468,517327000000
-444,685886000000
-374,386279000000
-201,907011000000
25,1519170000000
205,616919000000
295,597900000000
330,244665000000
358,792091000000
389,414549000000
399,098037000000
371,053650000000
315,090636000000
251,079008000000
188,324976000000
128,589174000000
75,8959080000000
42,6324990000000
34,3323660000000
37,0990770000000
17,4177020000000
-23,8943210000000
-59,2956430000000
-69,9852080000000
-52,7561450000000
-25,9064740000000
-1,63487500000000
23,1397630000000
58,5410860000000
121,735277000000
233,032508000000
343,952460000000
406,706492000000
413,497510000000
371,808208000000
293,585747000000
193,166720000000
92,8105720000000
-1,94927400000000
-100,167508000000
-188,639375000000
-235,862098000000
-236,428016000000
-215,740565000000
-205,931317000000
-209,955624000000
-221,902785000000
-229,385480000000
-233,346907000000
-222,531582000000
-177,195253000000
-102,053902000000
-22,0708070000000
43,9529740000000
100,670546000000
143,994723000000
171,536071000000
212,910974000000
296,541097000000
381,680335000000
411,925515000000
390,609265000000
349,297242000000
292,768310000000
222,405823000000
170,278476000000
138,021143000000
95,6401630000000
37,3505960000000
-20,4988120000000
-68,0359350000000
-98,4068740000000
-120,226162000000
-133,556677000000
-147,515991000000
-163,864737000000
-178,955887000000
-186,878741000000
-194,424316000000
-206,748755000000
-221,336866000000
-229,574119000000
-220,205030000000
-202,158530000000
-187,507539000000
-185,872664000000
-196,876628000000
-208,257870000000
-216,117844000000
-219,953511000000
-225,235414000000
-234,604502000000
-235,170421000000
-218,381516000000
-206,497236000000
-215,614805000000
-235,673459000000
-258,498823000000
-286,103052000000
-303,143475000000
-298,867649000000
-278,431717000000
-257,304107000000
-239,823525000000
-217,564079000000
-195,304633000000
-178,452849000000
-160,406348000000
-131,796043000000
-96,6462400000000
-64,9548250000000
-40,8718650000000
-17,7949810000000
13,0161170000000
54,6425390000000
97,0235180000000
130,789967000000
158,394195000000
190,965927000000
237,622732000000
288,429604000000
333,011376000000
370,299093000000
407,020891000000
437,454710000000
452,545860000000
446,195001000000
431,355370000000
415,383903000000
394,004774000000
364,136873000000
339,676634000000
328,295392000000
328,106753000000
333,640174000000
324,459725000000
281,387067000000
212,785215000000
121,169358000000
11,0039640000000
-94,8227260000000
-183,923390000000
-265,667120000000
-332,508338000000
-365,457349000000
-370,236213000000
-367,972540000000
-365,331589000000
-349,800281000000
-307,859460000000
-258,876102000000
-216,746642000000
-183,986270000000
-142,359848000000
-97,5265570000000
-57,9122880000000
-22,3223260000000
6,28797900000000
26,1579930000000
42,7582580000000
56,7175720000000
63,9487480000000
70,6768860000000
101,173585000000
222,845981000000
440,284301000000
644,140585000000
756,569653000000
806,433327000000
837,118666000000
832,402681000000
772,100961000000
669,292502000000
557,932391000000
444,623006000000
324,711244000000
238,314410000000
229,385480000000
246,237264000000
225,424053000000
155,124446000000
60,3017200000000
-39,2998700000000
-115,635937000000
-150,156942000000
-175,874777000000
-221,336866000000
-286,165932000000
-352,755631000000
-417,521816000000
-484,363035000000
-551,707291000000
-613,392367000000
-669,921300000000
-727,519189000000
-785,494357000000
-837,495944000000
-875,601098000000
-904,274283000000
-929,237560000000
-950,805329000000
-957,533466000000
-945,020388000000
-913,014574000000
-873,840464000000
-845,104399000000
-839,382338000000
-838,627781000000
-821,775996000000
-780,778372000000
-723,997920000000
-659,105976000000
-592,264757000000
-528,253129000000
-476,817460000000
-434,687999000000
-383,503849000000
-321,504374000000
-253,154041000000
-202,410049000000
-152,672134000000
-70,3624870000000
36,6589190000000
131,921803000000
209,641225000000
271,514940000000
312,952723000000
345,272936000000
392,055501000000
462,732386000000
554,033844000000
652,314958000000
733,429889000000
793,291451000000
834,917873000000
848,562788000000
814,041782000000
736,259480000000
646,781536000000
554,788401000000
459,777036000000
364,828551000000
282,204505000000
216,998161000000
168,769361000000
134,185475000000
113,372264000000
97,9667150000000
88,3461070000000
94,1939280000000
107,461564000000
117,333691000000
155,627484000000
222,154304000000
272,269498000000
294,466064000000
299,496447000000
301,571481000000
297,421414000000
276,482444000000
246,740302000000
228,253644000000
216,872401000000
199,391819000000
184,363549000000
175,937657000000
153,552451000000
118,779926000000
95,8916820000000
78,7254990000000
46,7825650000000
-4,27582600000000
-44,0158540000000
-55,5228560000000
-60,5532390000000
-82,8755650000000
-112,114668000000
-131,607404000000
-139,844657000000
-133,808197000000
-118,779926000000
-100,544787000000
-83,8187620000000
-73,0034380000000
-63,8858680000000
-62,0623540000000
-67,6586560000000
-68,2245740000000
-63,1313110000000
-58,4782060000000
-56,5918120000000
-58,0380480000000
-64,4517860000000
-80,8005320000000
-102,808459000000
-127,520217000000
-143,680324000000
-150,534221000000
-147,075833000000
-132,173322000000
-111,234351000000
-97,8409560000000
-95,2628840000000
-96,8977590000000
-93,8166490000000
-84,0074020000000
-76,7762260000000
-70,1109680000000
-53,3220630000000
-39,8029080000000
-51,4985490000000
-55,9630150000000
3,45838900000000
94,5712070000000
136,637787000000
124,501987000000
113,812423000000
112,240428000000
84,0702810000000
13,8964340000000
-69,6079290000000
-140,787853000000
-182,854434000000
-205,176760000000
-222,908861000000
-233,598426000000
-233,409786000000
-233,849945000000
-244,099351000000
-262,082971000000
-283,084822000000
-302,577557000000
-309,871613000000
-292,391031000000
-258,310184000000
-225,738452000000
-192,915201000000
-152,043336000000
-114,566980000000
-87,9059490000000
-65,2692240000000
-44,8961710000000
-42,0665810000000
-54,7682980000000
-71,7458420000000
-100,607667000000
-149,213745000000
-203,604765000000
-236,931055000000
-233,409786000000
-197,316786000000
-153,049413000000
-112,743466000000
-79,9830950000000
-61,1820370000000
-59,8615620000000
-67,7215360000000
-75,6443890000000
-85,7051560000000
-98,1553550000000
-108,970679000000
-117,459451000000
-125,633824000000
-125,822463000000
-110,291154000000
-78,7883790000000
-51,3099100000000
-42,9468980000000
-39,9915470000000
-18,4866590000000
18,8010580000000
52,8819050000000
82,2467670000000
109,662357000000
135,128672000000
147,893270000000
152,923653000000
162,041223000000
171,976230000000
170,215596000000
162,104103000000
151,854697000000
142,296968000000
137,015066000000
133,430918000000
122,049675000000
115,070019000000
130,161169000000
153,049413000000
146,761434000000
115,195778000000
91,5529770000000
89,4779430000000
94,5083270000000
93,6280100000000
83,5043630000000
64,5146660000000
38,7339520000000
15,3426690000000
11,3183620000000
33,5778090000000
59,1698840000000
78,8512590000000
90,3582610000000
95,5772830000000
92,4332940000000
74,1352740000000
41,1233840000000
6,85389700000000
-19,6813750000000
-34,8982840000000
7,54557500000000
157,073719000000
370,236213000000
553,405046000000
666,148512000000
719,910734000000
727,833588000000
695,387615000000
637,663967000000
559,189987000000
452,671620000000
328,672671000000
203,856284000000
94,8227260000000
4,15006600000000
-82,1838880000000
-175,308859000000
-255,354834000000
-312,575444000000
-350,240439000000
-370,236213000000
-388,408473000000
-417,647576000000
-452,294341000000
-492,034369000000
-535,924464000000
-577,425126000000
-609,430940000000
-627,163041000000
-621,503860000000
-595,408747000000
-567,678759000000
-536,490382000000
-510,269509000000
-511,778624000000
-557,240713000000
-619,428827000000
-667,972026000000
-711,233323000000
-761,788675000000
-809,828836000000
-827,560937000000
-807,753803000000
-764,555386000000
-717,018264000000
-657,093822000000
-586,102538000000
-519,827237000000
-458,519440000000
-390,860785000000
-322,384692000000
-262,711769000000
-211,338980000000
-166,128409000000
-130,475568000000
-110,039635000000
-104,443334000000
-101,173585000000
-90,4211400000000
-76,5875860000000
-56,0887740000000
-25,1519170000000
13,2676360000000
69,5450500000000
169,838317000000
331,816660000000
507,691437000000
619,051548000000
654,704390000000
676,838077000000
713,748514000000
726,387353000000
698,091446000000
647,661853000000
586,794215000000
515,362772000000
444,811646000000
422,174921000000
429,091698000000
395,388130000000
332,696977000000
294,277425000000
262,145851000000
198,951661000000
130,475568000000
110,794193000000
151,791817000000
191,154566000000
190,777288000000
163,801857000000
133,933956000000
112,680587000000
93,3136110000000
65,1434640000000
25,5920750000000
-28,9247040000000
-98,1553550000000
-153,175172000000
-186,061303000000
-215,614805000000
-249,255494000000
-270,760383000000
-261,705693000000
-201,718371000000
-115,321538000000
-31,2512560000000
46,7196850000000
121,609517000000
191,280326000000
247,620619000000
288,995522000000
327,666594000000
375,077957000000
417,647576000000
432,738726000000
415,006625000000
373,631722000000
324,145326000000
273,024055000000
218,004237000000
158,205556000000
114,063942000000
92,7476930000000
85,6422760000000
74,2610340000000
61,6850760000000
71,0541650000000
102,116782000000
140,410575000000
179,144526000000
213,665532000000
233,472666000000
226,430130000000
223,097501000000
256,172271000000
318,297505000000
379,479542000000
413,811909000000
415,886942000000
385,704642000000
329,930267000000
263,592086000000
191,091687000000
110,165395000000
26,5352720000000
-9,24332900000000
3,64702800000000
4,46446500000000
-34,9611640000000
-86,3339540000000
-132,299082000000
-177,761171000000
-224,606616000000
-275,539247000000
-341,751667000000
-421,797642000000
-512,407422000000
-589,686686000000
-647,221695000000
-694,507298000000
-727,519189000000
-751,979428000000
-778,451820000000
-786,248914000000
-745,942968000000
-681,554061000000
-640,619317000000
-613,832526000000
-546,676908000000
-462,543747000000
-422,929478000000
-424,690112000000
-437,203191000000
-448,332914000000
-465,561977000000
-482,036482000000
-472,667393000000
-408,844405000000
-310,186012000000
-217,564079000000
-153,300932000000
-101,236464000000
-55,2084570000000
-21,5048890000000
-4,77886400000000
2,26367200000000
0,880317000000000
-13,2047560000000
-36,5331590000000
-60,5532390000000
-78,1595810000000
-88,5976260000000
-72,8147990000000
-19,6184950000000
56,0887740000000
132,676360000000
192,034884000000
218,192877000000
200,838054000000
142,045449000000
59,9244410000000
-20,6874510000000
-106,832766000000
-195,241753000000
-254,977555000000
-267,805032000000
-244,916788000000
-187,821938000000
-109,536597000000
-17,2919430000000
75,1413510000000
127,583097000000
116,893533000000
69,9223280000000
22,5109650000000
-37,0990770000000
-110,354034000000
-173,548225000000
-215,551926000000
-238,817448000000
-237,119694000000
-203,101727000000
-164,367775000000
-145,503838000000
-135,443071000000
-114,252581000000
-76,5875860000000
-22,6996050000000
33,4520490000000
74,3239140000000
93,4393700000000
105,638050000000
133,996836000000
190,148490000000
283,021942000000
419,974128000000
558,435429000000
650,994482000000
691,237549000000
682,119979000000
646,592897000000
614,587083000000
600,942168000000
582,958548000000
542,778361000000
484,677434000000
418,087734000000
340,494072000000
255,732112000000
177,446772000000
115,573057000000
73,0034380000000
41,0605040000000
8,42589200000000
-30,3709390000000
-61,7479550000000
-65,7722620000000
-46,0280070000000
-23,1397630000000
-7,60845500000000
2,76671100000000
11,6327610000000
15,4055490000000
5,72206100000000
-11,0039640000000
-25,0261570000000
-33,1376500000000
-42,7582580000000
-53,5107030000000
-62,6911520000000
-68,6018530000000
-80,1717340000000
-90,5469000000000
-82,4354070000000
-51,2470300000000
-9,49484900000000
26,4723920000000
62,3767530000000
111,674510000000
159,085873000000
174,680061000000
160,532108000000
127,645977000000
75,4557500000000
18,1093800000000
-6,66525800000000
-1,76063400000000
-3,58414800000000
-25,8435940000000
-50,4295930000000
-65,5207430000000
-80,8005320000000
-108,530520000000
-155,250205000000
-211,401859000000
-263,906485000000
-299,559327000000
-307,985219000000
-291,573594000000
-268,622470000000
-247,997898000000
-229,699879000000
-201,844131000000
-145,189439000000
-50,0523140000000
63,5714690000000
143,868963000000
157,262359000000
126,639900000000
85,2649970000000
33,2634100000000
-38,9854710000000
-134,311235000000
-240,012165000000
-352,441232000000
-473,484831000000
-579,437280000000
-652,503597000000
-685,641248000000
-689,728434000000
-657,156702000000
-578,494083000000
-477,760657000000
-373,631722000000
-269,628546000000
-175,749018000000
-108,404761000000
-72,5004000000000
-59,8615620000000
-60,4274800000000
-72,2488810000000
-81,4922100000000
-79,5429360000000
-70,0480880000000
-59,6100420000000
-43,5756960000000
-38,8597110000000
-47,4742430000000
-38,9225910000000
24,2716000000000
123,747430000000
209,452586000000
247,809259000000
258,813222000000
278,620357000000
308,551137000000
330,747704000000
332,571218000000
314,524718000000
276,042285000000
223,474779000000
170,404235000000
120,477681000000
67,9730550000000
16,4745050000000
-31,3141360000000
-70,0480880000000
-95,8288020000000
-112,806346000000
-130,852846000000
-143,491684000000
-122,678473000000
-26,2208730000000
119,408724000000
241,709919000000
302,514677000000
294,717583000000
231,334753000000
127,520217000000
10,2494060000000
-92,5590530000000
-159,148753000000
-181,408199000000
-193,795518000000
-227,436206000000
-270,068705000000
-293,585747000000
-305,784427000000
-326,346118000000
-348,102526000000
-344,832777000000
-318,674784000000
-296,415338000000
-294,151665000000
-285,096975000000
-258,435943000000
-226,304370000000
-197,882704000000
-178,452849000000
-161,726824000000
-142,548488000000
-123,307271000000
-105,826689000000
-84,5733200000000
-66,0866610000000
-63,9487480000000
-67,2813770000000
-50,9955110000000
-11,9471600000000
30,3709390000000
89,9181020000000
164,619294000000
219,953511000000
255,229074000000
273,086935000000
248,752456000000
188,073457000000
143,303045000000
152,546374000000
202,598689000000
286,165932000000
398,972278000000
469,963562000000
451,036745000000
369,418776000000
274,155891000000
189,708331000000
115,007139000000
43,3241760000000
-14,5881120000000
-36,7217980000000
-35,2126830000000
-44,7075320000000
-59,6100420000000
-61,3077970000000
-46,5310460000000
11,3812420000000
107,461564000000
183,420352000000
209,201067000000
227,499086000000
275,916526000000
352,818511000000
422,237801000000
467,825650000000
480,527367000000
448,584433000000
384,950084000000
316,411111000000
249,695652000000
178,327089000000
97,7151960000000
10,5009250000000
-67,6586560000000
-130,727087000000
-189,016654000000
-240,892482000000
-278,683236000000
-300,628284000000
-313,455761000000
-315,593674000000
-272,332377000000
-159,022993000000
-21,8821670000000
76,2731870000000
101,802383000000
66,4010600000000
4,59022500000000
-64,7033060000000
-143,994723000000
-244,099351000000
-381,303056000000
-545,985230000000
-678,975990000000
-740,786825000000
-752,230947000000
-766,756179000000
-779,835175000000
-764,555386000000
-701,612715000000
-550,449696000000
-342,066066000000
-167,134486000000
-73,2549570000000
-54,0766210000000
-73,6951160000000
-97,6523160000000
-117,082172000000
-119,282965000000
-109,473717000000
-106,203968000000
-113,309384000000
-113,246505000000
-93,5651300000000
-66,9669780000000
-48,1030410000000
-28,6731850000000
-0,880317000000000
43,7643350000000
119,534484000000
206,182837000000
263,717846000000
281,387067000000
279,123395000000
265,667120000000
240,766722000000
202,535809000000
168,832240000000
148,962226000000
154,558528000000
186,941620000000
231,963551000000
269,565667000000
286,291691000000
277,802919000000
236,616656000000
170,341355000000
101,865262000000
47,1598440000000
1,19471600000000
-40,6832250000000
-73,0034380000000
-96,8348790000000
-120,477681000000
-139,530258000000
-141,290892000000
-123,433031000000
-77,1535040000000
17,6063420000000
207,440432000000
461,852069000000
675,517601000000
768,579693000000
760,405320000000
700,229359000000
602,954322000000
473,610590000000
334,960650000000
209,326826000000
99,7902290000000
3,33262900000000
-76,0216680000000
-131,921803000000
-193,103840000000
-255,291954000000
-294,466064000000
-308,739777000000
-294,214545000000
-225,801332000000
-66,6525790000000
147,515991000000
313,015603000000
348,354045000000
266,798956000000
139,090099000000
2,01215300000000
-148,207669000000
-321,315735000000
-505,553524000000
-670,424338000000
-808,885639000000
-916,158564000000
-988,407444000000
-1033,99529300000
-1072,22620600000
-1108,57072600000
-1099,13875700000
-1014,31391800000
-879,122366000000
-736,573879000000
-603,583120000000
-495,241239000000
-431,103851000000
-405,197377000000
-382,749291000000
-348,291166000000
-311,003449000000
-278,746116000000
-254,285877000000
-235,547699000000
-204,107804000000
-135,946109000000
-53,6364620000000
1,19471600000000
16,7260250000000
19,4927350000000
31,6285350000000
60,5532390000000
91,4900970000000
111,485871000000
110,542674000000
99,0985520000000
102,934219000000
124,942146000000
146,950073000000
159,588911000000
171,033033000000
193,229600000000
226,052851000000
258,247304000000
288,869763000000
316,662630000000
334,834890000000
343,323662000000
349,988920000000
359,672408000000
372,437006000000
383,126570000000
382,497772000000
403,373863000000
476,565941000000
564,283250000000
611,443094000000
614,649963000000
602,199764000000
583,084308000000
548,814821000000
501,277699000000
440,661580000000
376,084034000000
357,094336000000
389,100150000000
423,369637000000
422,740839000000
369,418776000000
285,348494000000
209,326826000000
198,197103000000
274,658930000000
335,966727000000
304,275312000000
219,701992000000
122,112555000000
10,4380450000000
-118,779926000000
-239,006088000000
-306,916263000000
-281,135548000000
-200,335016000000
-147,956150000000
-160,217709000000
-205,302520000000
-236,239377000000
-264,598163000000
-315,782313000000
-365,394469000000
-376,021154000000
-350,429079000000
-316,662630000000
-293,711507000000
-272,521017000000
-242,087198000000
-204,107804000000
-167,386005000000
-126,325501000000
-83,7558820000000
-55,8372550000000
-52,6303860000000
-57,6607690000000
-59,2327640000000
-65,3949830000000
-79,7944560000000
-106,832766000000
-131,418764000000
-138,021143000000
-125,256545000000
-107,713083000000
-94,8227260000000
-80,7376520000000
-62,9426710000000
-57,0948510000000
-77,1535040000000
-119,534484000000
-163,047300000000
-191,343206000000
-184,174910000000
-123,307271000000
-28,8618240000000
74,8898320000000
163,738977000000
232,780989000000
283,587860000000
303,898033000000
283,021942000000
229,322600000000
163,738977000000
105,826689000000
81,5550900000000
92,4961730000000
115,447297000000
132,424841000000
141,668170000000
148,836467000000
160,154829000000
169,209519000000
178,012690000000
176,566455000000
152,609254000000
117,836729000000
85,8937950000000
92,3704140000000
149,025106000000
229,071081000000
328,421152000000
451,476904000000
541,080607000000
524,291702000000
380,548499000000
159,966190000000
-71,5572030000000
-297,044136000000
-526,492495000000
-742,861858000000
-912,637295000000
-1043,55302100000
-1155,10177200000
-1233,32423200000
-1251,55937200000
-1222,57178800000
-1166,67165300000
-1095,42884900000
-1023,05420900000
-957,910745000000
-899,055260000000
-835,735310000000
-763,926588000000
-691,111789000000
-623,516014000000
-556,234636000000
-479,709930000000
-399,538196000000
-333,388655000000
-284,971216000000
-236,679536000000
-172,667908000000
-98,4697540000000
-30,9997370000000
21,0018500000000
48,9204780000000
65,8980220000000
88,5976260000000
114,504101000000
136,826427000000
188,324976000000
266,861836000000
323,076369000000
346,341892000000
378,976504000000
450,973865000000
518,003723000000
522,971227000000
478,263695000000
429,594736000000
386,647839000000
329,741627000000
303,206355000000
381,365936000000
494,486681000000
549,066340000000
562,208217000000
568,496196000000
545,859471000000
473,673470000000
379,479542000000
305,973066000000
254,726036000000
205,428279000000
170,278476000000
161,978343000000
172,416389000000
183,168833000000
175,686138000000
155,187326000000
142,296968000000
149,276625000000
190,400009000000
259,064741000000
316,725510000000
351,686674000000
368,475579000000
362,816398000000
336,092486000000
297,610054000000
252,273724000000
201,529732000000
141,039373000000
75,1413510000000
9,05469000000000
-44,9590510000000
-74,2610340000000
-94,9484850000000
-139,844657000000
-205,176760000000
-253,719959000000
-272,143738000000
-283,462101000000
-302,074519000000
-320,561178000000
-319,240702000000
-289,687200000000
-264,975442000000
-274,470290000000
-293,774386000000
-302,326038000000
-300,502524000000
-285,725773000000
-235,799219000000
-164,053376000000
-108,027482000000
-78,6626190000000
-87,1513910000000
-145,378078000000
-220,330790000000
-280,695390000000
-327,037796000000
-363,570955000000
-385,012964000000
-379,479542000000
-340,934230000000
-279,186275000000
-215,363286000000
-154,307009000000
-101,865262000000
-61,3077970000000
-22,0079270000000
27,1640700000000
87,3400310000000
147,956150000000
204,296443000000
280,192351000000
402,430666000000
523,725784000000
602,011125000000
647,850493000000
667,720507000000
647,598974000000
592,516276000000
523,537145000000
441,227498000000
345,084296000000
241,206881000000
118,465527000000
-27,1011900000000
-157,702517000000
-247,054701000000
-296,792616000000
-328,484031000000
-342,066066000000
-323,579408000000
-272,772536000000
-213,728412000000
-175,183099000000
-156,822200000000
-157,010840000000
-179,270286000000
-215,363286000000
-251,582046000000
-284,090898000000
-314,776237000000
-343,512302000000
-363,948234000000
-384,069767000000
-408,844405000000
-442,485093000000
-484,551674000000
-523,600025000000
-534,603988000000
-465,939256000000
-316,222472000000
-171,976230000000
-102,494060000000
-101,676623000000
-145,315198000000
-204,359323000000
-249,947172000000
-272,080858000000
-290,441757000000
-306,350345000000
-292,265271000000
-213,476892000000
-67,5957760000000
169,838317000000
473,736350000000
686,018526000000
664,890916000000
492,977566000000
357,848894000000
256,926828000000
77,5936630000000
-182,854434000000
-454,683773000000
-703,436229000000
-927,917085000000
-1103,22594400000
-1208,61247400000
-1259,41934600000
-1262,31181600000
-1181,88856300000
-1002,68115700000
-737,642835000000
-416,264220000000
-107,272924000000
140,473454000000
326,346118000000
467,637010000000
574,532656000000
681,113903000000
826,303341000000
989,665040000000
1107,75328900000
1144,66372600000
1101,46530900000
1035,37864800000
987,212728000000
949,799252000000
913,894891000000
879,436765000000
831,082206000000
772,415360000000
716,578105000000
653,635434000000
577,802405000000
503,226972000000
442,736613000000
392,558539000000
345,713094000000
290,315998000000
221,336866000000
151,100139000000
84,9505980000000
25,0261570000000
-24,9003970000000
-58,5410860000000
-76,1474280000000
-85,8937950000000
-111,171472000000
-166,254169000000
-227,121807000000
-267,616393000000
-290,756156000000
-304,966989000000
-306,727623000000
-299,370688000000
-300,942683000000
-311,129209000000
-313,330002000000
-294,591824000000
-254,285877000000
-220,896708000000
-207,126034000000
-204,107804000000
-214,482969000000
-234,730262000000
-254,977555000000
-277,928679000000
-298,175972000000
-302,011639000000
-291,825113000000
-280,758269000000
-271,263421000000
-241,584159000000
-170,844394000000
-83,0013250000000
-44,2044930000000
-57,5350090000000
-69,9852080000000
-66,1495410000000
-58,5410860000000
-32,6974920000000
3,20686900000000
12,3873190000000
10,6895650000000
47,7886420000000
102,808459000000
116,579134000000
94,6340860000000
73,1920770000000
63,4457100000000
115,132898000000
292,642550000000
537,810858000000
733,744288000000
775,685109000000
658,037019000000
447,075318000000
222,720222000000
19,9328940000000
-140,221935000000
-262,397370000000
-385,641762000000
-512,596061000000
-616,662116000000
-674,322885000000
-697,211129000000
-696,016413000000
-663,507561000000
-608,739262000000
-563,843091000000
-535,421425000000
-510,835427000000
-501,151939000000
-523,725784000000
-559,441506000000
-583,838865000000
-597,232261000000
-593,396593000000
-568,181797000000
-533,472152000000
-490,022216000000
-447,515477000000
-425,633309000000
-419,030931000000
-402,116267000000
-371,871088000000
-334,080333000000
-288,744003000000
-215,866325000000
-116,390494000000
-28,2959060000000
20,6245720000000
38,8597110000000
42,4438590000000
37,7278750000000
27,2898300000000
11,3183620000000
-0,880317000000000
-4,90462400000000
-8,67741100000000
-6,03646000000000
16,1601060000000
46,9712040000000
71,3685630000000
99,6644700000000
142,359848000000
207,063154000000
290,441757000000
385,075844000000
489,456298000000
583,650226000000
641,499634000000
673,568328000000
658,728697000000
589,938205000000
490,022216000000
397,840441000000
329,490108000000
271,577820000000
215,992084000000
167,637524000000
130,852846000000
112,932106000000
145,755357000000
236,490896000000
332,445458000000
397,085884000000
463,675583000000
561,579419000000
659,105976000000
700,606638000000
668,726584000000
611,128695000000
561,893818000000
495,555638000000
354,076107000000
135,883230000000
-117,648090000000
-337,916000000000
-498,762507000000
-605,783912000000
-662,753003000000
-663,884840000000
-609,179421000000
-516,557488000000
-417,396057000000
-315,153515000000
-178,201329000000
-16,1601060000000
117,019292000000
166,065530000000
146,950073000000
113,560904000000
131,670284000000
268,748229000000
450,093548000000
536,113103000000
514,922613000000
479,647050000000
455,815609000000
412,491433000000
331,690901000000
233,409786000000
118,025369000000
-8,30013200000000
-123,433031000000
-233,472666000000
-364,828551000000
-493,732124000000
-582,644149000000
-627,414561000000
-651,874800000000
-672,059213000000
-681,113903000000
-664,953796000000
-617,102275000000
-540,703328000000
-446,823799000000
-340,934230000000
-217,878478000000
-106,392607000000
-32,3830930000000
20,4988120000000
62,0623540000000
82,9384450000000
75,6443890000000
33,5778090000000
-29,9936610000000
-79,4171770000000
-118,654167000000
-174,302782000000
-247,117581000000
-301,823000000000
-328,987070000000
-348,794204000000
-368,852858000000
-386,773598000000
-406,580732000000
-418,590773000000
-395,576769000000
-333,200016000000
-266,861836000000
-223,097501000000
-202,661568000000
-188,702255000000
-149,968303000000
-53,3849430000000
56,7175720000000
93,3136110000000
46,7196850000000
-19,2412160000000
-71,0541650000000
-109,725236000000
-144,812160000000
-171,095913000000
-195,115993000000
-224,480856000000
-236,302257000000
-193,795518000000
-110,354034000000
-21,5048890000000
52,9447850000000
110,605553000000
152,357735000000
195,178873000000
245,734226000000
293,711507000000
326,220359000000
337,475842000000
336,281125000000
396,834365000000
553,467926000000
709,912847000000
764,178107000000
720,791051000000
631,124468000000
528,378889000000
424,564353000000
334,709131000000
276,545323000000
256,360910000000
257,995785000000
278,243078000000
296,352458000000
266,484557000000
187,884817000000
163,298819000000
225,109654000000
276,482444000000
247,054701000000
147,264472000000
25,2776760000000
-81,9952480000000
-163,864737000000
-223,914938000000
-261,579933000000
-281,009789000000
-286,228811000000
-275,727886000000
-255,040435000000
-201,592612000000
-65,7722620000000
110,291154000000
235,736339000000
269,439907000000
226,241490000000
148,773587000000
66,9669780000000
-15,7199480000000
-99,1614310000000
-173,233826000000
-230,391556000000
-264,472403000000
-281,072668000000
-305,029869000000
-339,236476000000
-359,295129000000
-357,974654000000
-349,045723000000
-323,956686000000
-265,289841000000
-195,619032000000
-155,061566000000
-143,491684000000
-142,296968000000
-141,731050000000
-140,536334000000
-127,457338000000
-86,1453140000000
-27,6671080000000
12,8274770000000
18,3608990000000
-6,91677700000000
-49,9894340000000
-97,2121580000000
-135,254432000000
-161,663944000000
-187,193140000000
-216,809521000000
-234,101464000000
-223,789178000000
-201,403972000000
-189,142413000000
-164,493535000000
-92,9363320000000
-29,0504640000000
-25,2776760000000
-38,4195530000000
-28,4216660000000
12,8903570000000
54,3910200000000
66,7154590000000
74,7640720000000
96,2689610000000
108,907799000000
117,773850000000
144,183362000000
153,049413000000
129,029332000000
103,877416000000
100,167508000000
83,0013250000000
25,5291950000000
-57,3463700000000
-127,583097000000
-177,195253000000
-221,273987000000
-254,222997000000
-267,616393000000
-260,951135000000
-240,326563000000
-215,048887000000
-183,734751000000
-148,522068000000
-119,220085000000
-93,3136110000000
-63,3828300000000
-19,4298560000000
31,5027760000000
83,1899640000000
125,382304000000
151,854697000000
159,463151000000
145,063679000000
119,660243000000
104,066055000000
103,374377000000
101,802383000000
84,1331610000000
30,9368570000000
-53,1334240000000
-137,329465000000
-186,061303000000
-209,766985000000
-241,458400000000
-283,084822000000
-309,431454000000
-242,715996000000
-53,9508610000000
132,424841000000
199,643338000000
211,904898000000
287,297768000000
391,049424000000
410,479280000000
330,810584000000
188,765134000000
-13,5820350000000
-254,097238000000
-458,079282000000
-572,394743000000
-652,692237000000
-751,853668000000
-837,873223000000
-864,722894000000
-839,445218000000
-784,488280000000
-706,328699000000
-600,187611000000
-462,417987000000
-330,118906000000
-236,302257000000
-174,365662000000
-120,729200000000
-64,9548250000000
-25,4663160000000
1,82351400000000
89,2264240000000
254,663156000000
408,718645000000
465,687737000000
430,412174000000
345,713094000000
254,977555000000
181,974117000000
142,171209000000
144,623521000000
178,201329000000
225,424053000000
249,192614000000
229,888518000000
200,397896000000
186,124183000000
145,629597000000
89,9181020000000
102,179661000000
178,767248000000
218,318636000000
170,718634000000
87,5915500000000
33,3262900000000
-0,943197000000000
-42,3181000000000
-66,2753000000000
-46,5310460000000
4,52734500000000
53,8251020000000
93,4393700000000
148,647827000000
229,825638000000
309,305695000000
353,887467000000
366,274786000000
360,364086000000
353,258669000000
348,039647000000
344,581258000000
330,056026000000
300,628284000000
253,405560000000
196,876628000000
164,807934000000
173,988383000000
198,259983000000
214,608729000000
214,545849000000
185,935544000000
148,710707000000
147,201592000000
184,803708000000
212,910974000000
185,935544000000
118,717047000000
50,7439920000000
-3,52126800000000
-49,1719970000000
-89,9181020000000
-120,414801000000
-125,822463000000
-106,895646000000
-81,2406910000000
-61,7479550000000
-23,5170420000000
111,422991000000
326,974916000000
498,888267000000
550,764095000000
506,433842000000
405,134497000000
259,190501000000
95,7659230000000
-47,7257620000000
-138,964339000000
-171,158793000000
-190,274249000000
-214,168570000000
-252,839642000000
-319,366462000000
-362,753518000000
-336,092486000000
-279,249154000000
-200,523655000000
-44,2044930000000
113,372264000000
161,852584000000
122,992872000000
46,4052860000000
-75,5815100000000
-243,470553000000
-417,018778000000
-541,960924000000
-623,390254000000
-700,040720000000
-751,727909000000
-762,165954000000
-754,180220000000
-744,874011000000
-725,884314000000
-695,702014000000
-660,803730000000
-626,282724000000
-604,400557000000
-597,798179000000
-577,802405000000
-523,034107000000
-448,773073000000
-388,974391000000
-354,893544000000
-291,825113000000
-162,858660000000
-4,59022500000000
107,272924000000
147,641751000000
135,883230000000
99,5387100000000
55,3970960000000
6,79101700000000
-51,6871890000000
-94,2568080000000
-113,435144000000
-132,613480000000
-155,941883000000
-129,280852000000
0,503038000000000
153,929730000000
246,300144000000
297,044136000000
359,106490000000
418,905172000000
424,438593000000
365,645988000000
278,305958000000
181,848357000000
87,2142710000000
17,7321010000000
-30,9997370000000
-77,4679030000000
-95,7659230000000
-59,1698840000000
-12,9532370000000
2,51519200000000
-15,1540300000000
-40,1801870000000
-67,3442570000000
-103,940296000000
-144,497761000000
-169,461038000000
-176,126296000000
-177,069493000000
-178,138450000000
-183,986270000000
-195,304633000000
-203,416126000000
-195,115993000000
-167,889044000000
-143,994723000000
-138,084022000000
-140,159055000000
-129,783890000000
-103,059978000000
-75,0784710000000
-49,1719970000000
-27,6671080000000
-15,2797890000000
2,32655200000000
31,6285350000000
63,4457100000000
72,7519190000000
57,4092500000000
42,0665810000000
35,3384430000000
21,6935280000000
-8,80317100000000
-48,8575980000000
-96,3947210000000
-145,252319000000
-171,347432000000
-165,814010000000
-124,879266000000
-43,3870560000000
72,1860010000000
182,162756000000
246,237264000000
259,064741000000
243,659192000000
233,032508000000
228,442283000000
214,042811000000
200,397896000000
198,951661000000
201,026694000000
195,807671000000
194,550075000000
203,730525000000
222,028544000000
243,156154000000
261,768572000000
279,815073000000
304,841230000000
340,368312000000
374,323399000000
391,489583000000
395,639649000000
396,582846000000
394,696452000000
388,911511000000
373,505962000000
347,599488000000
323,202129000000
305,595787000000
285,662893000000
255,983632000000
220,079271000000
188,324976000000
168,832240000000
149,213745000000
118,402648000000
79,5429360000000
46,9083250000000
21,0018500000000
2,13791300000000
-21,5677690000000
-52,5675060000000
-83,0013250000000
-106,832766000000
-123,370151000000
-137,769623000000
-147,138712000000
-150,471341000000
-150,974380000000
-153,363812000000
-160,029070000000
-166,505688000000
-167,889044000000
-168,014803000000
-169,209519000000
-169,398159000000
-168,203443000000
-165,185213000000
-164,367775000000
-159,651791000000
-154,935807000000
-153,238052000000
-156,885080000000
-158,079796000000
-151,351658000000
-143,931843000000
-147,075833000000
-153,049413000000
-151,917577000000
-148,207669000000
-148,144789000000
-149,528144000000
-146,887193000000
-149,968303000000
-175,749018000000
-202,535809000000
-213,917051000000
-214,734488000000
-211,338980000000
-201,592612000000
-184,929467000000
-171,095913000000
-160,909387000000
-151,791817000000
-140,221935000000
-125,759583000000
-113,875303000000
-98,1553550000000
-82,4354070000000
-66,7154590000000
-44,3302530000000
-18,6124180000000
4,02430700000000
18,0465000000000
26,6610320000000
36,4073990000000
46,6568050000000
57,8494080000000
77,7194220000000
102,871339000000
113,812423000000
108,593400000000
103,814536000000
122,175435000000
167,197366000000
211,653379000000
228,379403000000
220,645189000000
202,975967000000
171,033033000000
134,059716000000
161,978343000000
259,253381000000
331,376502000000
318,989183000000
241,709919000000
136,008989000000
24,0200800000000
-79,7315760000000
-162,418502000000
-230,265797000000
-296,478217000000
-343,386542000000
-362,187600000000
-363,382316000000
-354,327626000000
-354,013227000000
-367,469502000000
-383,063690000000
-388,471353000000
-373,065804000000
-350,177559000000
-340,997110000000
-351,560915000000
-374,009000000000
-411,611116000000
-468,328688000000
-533,472152000000
-611,946132000000
-703,750628000000
-763,737949000000
-756,381013000000
-707,900694000000
-643,197388000000
-569,816671000000
-491,782850000000
-419,408210000000
-339,928153000000
-245,482706000000
-154,369888000000
-83,7558820000000
-22,8253640000000
37,7907550000000
91,3643370000000
131,544524000000
162,795780000000
195,996310000000
232,592349000000
267,616393000000
296,918376000000
315,908073000000
325,717320000000
335,589448000000
352,755631000000
374,574919000000
434,184961000000
545,545072000000
674,574404000000
757,764369000000
759,336363000000
672,688011000000
531,774398000000
389,791828000000
264,598163000000
141,102252000000
5,59630100000000
-119,848883000000
-197,819824000000
-226,241490000000
-240,578083000000
-269,754306000000
-315,908073000000
-355,019303000000
-353,824587000000
-269,817186000000
-89,8552220000000
129,217972000000
301,068442000000
391,363823000000
416,201341000000
447,578357000000
552,398969000000
647,913373000000
633,576780000000
515,865810000000
353,321549000000
181,596838000000
32,7603710000000
-71,1799240000000
-125,445184000000
-142,108329000000
-144,183362000000
-153,112293000000
-177,069493000000
-215,992084000000
-254,663156000000
-285,222735000000
-295,094862000000
-281,135548000000
-265,729999000000
-264,912562000000
-276,168045000000
-293,774386000000
-331,124983000000
-389,728948000000
-438,963825000000
-465,876376000000
-477,194738000000
-491,342692000000
-498,070829000000
-441,479017000000
-313,015603000000
-189,519692000000
-90,1696210000000
3,64702800000000
50,1151940000000
24,3344790000000
-33,7035680000000
-84,4475600000000
-125,130785000000
-163,173059000000
-197,316786000000
-224,166457000000
-261,076895000000
-301,634360000000
-310,626171000000
-289,750080000000
-250,638849000000
-184,803708000000
-93,3764910000000
2,32655200000000
89,2893040000000
174,239903000000
275,916526000000
386,396319000000
487,695664000000
568,496196000000
626,094085000000
651,246002000000
648,039132000000
626,534244000000
591,007161000000
542,967000000000
486,689587000000
424,690112000000
389,100150000000
401,047311000000
421,294604000000
371,493809000000
255,857872000000
209,452586000000
265,101201000000
289,750080000000
205,113880000000
67,5328960000000
-55,3342170000000
-155,187326000000
-246,488783000000
-332,445458000000
-412,177034000000
-489,141899000000
-557,492232000000
-620,749303000000
-662,753003000000
-649,736887000000
-582,769909000000
-507,628558000000
-459,399757000000
-424,061315000000
-387,968314000000
-358,917850000000
-343,009263000000
-338,041760000000
-325,717320000000
-291,133435000000
-231,208994000000
-167,511765000000
-121,106479000000
-82,9384450000000
-54,2023800000000
-46,0280070000000
-41,8150610000000
-7,60845500000000
54,0766210000000
112,051789000000
144,372002000000
153,741090000000
194,864474000000
294,654703000000
429,594736000000
554,474002000000
624,584970000000
623,201615000000
611,568853000000
662,690124000000
725,632795000000
703,247589000000
590,567003000000
444,182848000000
303,269235000000
177,383892000000
80,7376520000000
29,3019830000000
-8,42589200000000
-68,6647320000000
-138,209782000000
-185,243866000000
-206,371476000000
-219,701992000000
-233,912825000000
-237,874252000000
-224,921015000000
-208,194990000000
-199,328939000000
-191,531845000000
-175,057340000000
-158,960113000000
-146,824313000000
-136,323388000000
-137,706744000000
-150,345582000000
-158,016916000000
-156,256282000000
-158,457075000000
-164,682174000000
-156,696441000000
-122,049675000000
-83,7558820000000
-47,8515210000000
-3,96142700000000
64,3260270000000
133,242278000000
157,513878000000
121,106479000000
39,7400280000000
-49,5492760000000
-128,840693000000
-188,387856000000
-235,296180000000
-277,865799000000
-311,003449000000
-317,165669000000
-303,332115000000
-287,297768000000
-274,847569000000
-260,259457000000
-234,101464000000
-198,259983000000
-139,781777000000
-58,7297250000000
-5,34478200000000
-6,97965700000000
-17,5434620000000
-0,628798000000000
22,8882440000000
38,2309130000000
59,1698840000000
88,2203480000000
132,299082000000
212,282176000000
293,082709000000
307,356421000000
229,196840000000
93,0620920000000
-52,0644670000000
-168,203443000000
-237,119694000000
-275,161968000000
-307,293542000000
-357,408735000000
-408,781525000000
-425,193151000000
-409,410323000000
-391,112304000000
-371,493809000000
-335,526568000000
-295,723660000000
-268,433830000000
-237,245454000000
-205,491159000000
-174,554301000000
-130,412688000000
-67,0927380000000
-21,1276100000000
-5,59630100000000
4,52734500000000
18,8639370000000
36,7217980000000
50,3038330000000
54,7054190000000
49,6750350000000
50,6811120000000
57,9122880000000
76,2103070000000
106,644127000000
137,769623000000
167,134486000000
200,460776000000
234,981781000000
251,959325000000
251,959325000000
244,853908000000
230,831715000000
210,521542000000
198,008464000000
198,448622000000
203,604765000000
200,775175000000
185,495385000000
158,016916000000
125,067905000000
97,0235180000000
73,2549570000000
56,9690910000000
47,6000020000000
40,5574660000000
35,1498040000000
33,7664480000000
34,2694860000000
35,5270820000000
34,7096450000000
32,1944530000000
29,9936610000000
26,3466330000000
24,1458400000000
25,2147960000000
29,6163820000000
34,7096450000000
43,0726570000000
51,1841500000000
53,5107030000000
55,2084570000000
62,2509940000000
85,9566750000000
133,493798000000
178,327089000000
181,533958000000
152,923653000000
125,822463000000
99,4129510000000
64,8290650000000
47,5371220000000
54,0137410000000
58,9812450000000
44,5188920000000
23,6428020000000
17,7949810000000
42,6953780000000
107,964602000000
192,852321000000
243,407673000000
222,971741000000
184,803708000000
205,176760000000
242,275837000000
231,208994000000
175,245979000000
116,264735000000
62,6282720000000
1,50911500000000
-76,2731870000000
-155,753244000000
-203,164607000000
-197,442546000000
-164,933693000000
-150,597101000000
-183,105953000000
-264,786802000000
-373,065804000000
-474,553787000000
-551,895931000000
-601,759606000000
-602,388404000000
-534,981267000000
-445,314684000000
-349,108603000000
-235,296180000000
-158,205556000000
-159,651791000000
-216,180724000000
-286,606090000000
-341,563028000000
-366,903584000000
-352,629871000000
-307,230662000000
-248,752456000000
-191,154566000000
-152,294855000000
-129,092212000000
-102,242541000000
-85,8309160000000
-102,871339000000
-142,359848000000
-185,118106000000
-259,001862000000
-353,007150000000
-406,895131000000
-405,574656000000
-387,465276000000
-380,296980000000
-385,767521000000
-406,580732000000
-434,687999000000
-454,809533000000
-456,695926000000
-439,844142000000
-413,434630000000
-395,136610000000
-371,493809000000
-334,520491000000
-282,330264000000
-225,801332000000
-181,471079000000
-132,802120000000
-64,5775460000000
0,628798000000000
45,2105700000000
76,6504660000000
96,2060810000000
99,4758300000000
92,9363320000000
100,670546000000
128,526294000000
161,412425000000
192,286403000000
219,890631000000
252,462363000000
292,076632000000
327,540834000000
356,905697000000
403,499623000000
463,801343000000
520,959073000000
573,086421000000
596,540583000000
556,045997000000
468,014289000000
379,605302000000
307,042022000000
238,000011000000
158,205556000000
87,3400310000000
41,3749030000000
11,0039640000000
-20,1215330000000
-57,9751680000000
-102,053902000000
-127,080059000000
-115,635937000000
-83,5672430000000
-45,9022480000000
17,8578610000000
120,037522000000
235,170421000000
326,471878000000
370,865011000000
371,305169000000
341,122869000000
308,299618000000
289,561440000000
280,632510000000
265,729999000000
241,772799000000
245,168307000000
278,305958000000
304,589711000000
306,853383000000
292,202392000000
259,064741000000
188,702255000000
63,4457100000000
16,6002650000000
161,663944000000
332,131059000000
347,599488000000
212,156417000000
16,0972270000000
-186,690101000000
-368,412699000000
-505,679284000000
-559,818785000000
-523,662904000000
-456,381527000000
-403,876901000000
-337,161443000000
-232,529469000000
-131,418764000000
-59,8615620000000
-15,4684290000000
17,2919430000000
40,7461050000000
67,7215360000000
170,907274000000
351,309396000000
491,782850000000
519,827237000000
436,259994000000
289,561440000000
121,672397000000
-34,0179670000000
-163,676098000000
-252,965402000000
-281,198428000000
-257,870025000000
-224,669495000000
-203,730525000000
-182,917314000000
-160,091949000000
-148,899347000000
-160,532108000000
-179,647565000000
-192,097763000000
-222,405823000000
-278,368837000000
-338,293279000000
-391,489583000000
-439,089585000000
-467,133972000000
-457,890642000000
-380,045460000000
-205,239640000000
60,9933980000000
329,930267000000
481,596324000000
494,926840000000
434,687999000000
333,891693000000
193,103840000000
48,8575980000000
-68,3503330000000
-174,805821000000
-290,567517000000
-398,909398000000
-478,955373000000
-523,096986000000
-534,981267000000
-523,977303000000
-497,882190000000
-469,334765000000
-440,472940000000
-403,059464000000
-363,382316000000
-333,954573000000
-315,656554000000
-298,175972000000
-272,772536000000
-240,263684000000
-199,328939000000
-158,268435000000
-88,9120250000000
36,9733170000000
161,349545000000
219,136074000000
206,057077000000
161,160906000000
145,881117000000
163,927617000000
168,832240000000
137,832503000000
67,1556170000000
-37,2248370000000
-149,465265000000
-237,622732000000
-290,315998000000
-323,642287000000
-365,583108000000
-415,886942000000
-458,267921000000
-483,734237000000
-505,239126000000
-523,348505000000
-514,482455000000
-456,381527000000
-338,041760000000
-202,347169000000
-96,5204800000000
-23,5799220000000
35,0240440000000
64,7661850000000
64,3260270000000
81,9323680000000
133,305158000000
177,824051000000
189,142413000000
182,728674000000
185,872664000000
212,470816000000
278,808996000000
386,081920000000
488,450221000000
565,729485000000
644,769383000000
727,833588000000
778,137421000000
785,745876000000
774,867672000000
755,563576000000
710,353006000000
624,207691000000
509,074793000000
388,345593000000
279,940832000000
196,813748000000
141,919690000000
94,2568080000000
52,8819050000000
35,1498040000000
38,6081920000000
48,2288000000000
48,4803190000000
30,7482180000000
2,45231200000000
-17,3548220000000
-30,6224590000000
-42,2552200000000
-57,6607690000000
-95,5772830000000
-152,231975000000
-215,929204000000
-269,691426000000
-287,360648000000
-256,549550000000
-208,886668000000
-166,505688000000
-130,601327000000
-93,8166490000000
-56,1516540000000
-21,0018500000000
-1,63487500000000
7,29405600000000
7,29405600000000
0,628798000000000
-8,17437300000000
-25,8435940000000
-62,0623540000000
-102,934219000000
-123,495911000000
-128,400534000000
-130,349808000000
-137,455224000000
-140,284815000000
-144,309122000000
-149,087986000000
-142,485608000000
-114,881379000000
-59,8615620000000
-2,51519200000000
29,4277420000000
31,3770160000000
13,3933960000000
-17,6692210000000
-52,0644670000000
-82,4354070000000
-116,956412000000
-177,572531000000
-253,719959000000
-324,145326000000
-383,755368000000
-416,389980000000
-410,856558000000
-378,410586000000
-301,697240000000
-135,128672000000
60,8047580000000
182,728674000000
206,434356000000
170,529995000000
99,9159890000000
17,9207410000000
-41,7521820000000
-62,4396330000000
-51,6243090000000
-26,2837530000000
-10,5009250000000
-15,0911500000000
-8,48877200000000
33,8922080000000
76,2731870000000
92,4961730000000
94,6340860000000
92,4961730000000
88,1574680000000
78,6626190000000
62,9426710000000
46,9083250000000
33,2634100000000
28,1701470000000
24,8375180000000
19,6813750000000
9,74636800000000
-3,70990800000000
-11,8214010000000
-16,4745050000000
-24,0200800000000
-32,9490110000000
-33,0747700000000
-18,9896970000000
13,7077950000000
65,1434640000000
120,729200000000
157,765397000000
176,755094000000
193,543999000000
207,251793000000
220,330790000000
251,330527000000
265,792879000000
227,247567000000
145,000799000000
59,7986820000000
-10,2494060000000
-58,9183650000000
-84,0074020000000
-99,3500710000000
-126,451261000000
-162,921540000000
-189,079533000000
-217,501199000000
-259,945058000000
-282,770423000000
-270,131585000000
-252,902522000000
-250,072931000000
-258,750342000000
-270,949022000000
-275,727886000000
-269,880066000000
-257,744266000000
-253,719959000000
-261,705693000000
-274,218771000000
-279,563553000000
-291,322074000000
-318,360385000000
-341,059990000000
-336,218246000000
-304,338191000000
-242,778875000000
-148,522068000000
-52,9447850000000
2,20079300000000
1,63487500000000
-32,9490110000000
-79,2285370000000
-138,649940000000
-209,892744000000
-280,569630000000
-355,459462000000
-443,679810000000
-526,240976000000
-586,982855000000
-625,528167000000
-630,432791000000
-583,838865000000
-499,957223000000
-409,095924000000
-330,244665000000
-263,843606000000
-197,002387000000
-125,508064000000
-61,2449170000000
1,00607700000000
74,8898320000000
167,260246000000
266,233038000000
323,139249000000
321,441495000000
288,303844000000
249,632773000000
204,296443000000
148,019029000000
91,6787360000000
52,2531070000000
33,4520490000000
24,3973590000000
83,8187620000000
250,953248000000
424,187074000000
543,029880000000
686,961723000000
832,339801000000
865,854730000000
730,663178000000
511,086946000000
312,575444000000
166,317049000000
58,4153260000000
-32,4459720000000
-91,2385780000000
-91,9931350000000
-78,8512590000000
-101,487984000000
-140,724974000000
-163,927617000000
-181,848357000000
-215,174647000000
-254,285877000000
-266,484557000000
-240,200804000000
-195,241753000000
-114,755620000000
16,4116260000000
181,659718000000
329,238589000000
375,643875000000
362,564878000000
386,333440000000
425,067391000000
412,428553000000
363,759594000000
301,634360000000
243,219034000000
196,310709000000
151,980456000000
116,830653000000
101,928142000000
127,394458000000
187,759058000000
244,853908000000
281,072668000000
303,206355000000
307,607941000000
289,812959000000
252,525243000000
205,679798000000
151,540298000000
94,6340860000000
60,4903600000000
46,9083250000000
22,3852060000000
-22,2594460000000
-82,4354070000000
-148,270549000000
-201,781251000000
-238,314410000000
-256,423790000000
-262,900409000000
-260,825376000000
-251,393407000000
-228,316523000000
-193,543999000000
-170,215596000000
-173,422465000000
-176,440695000000
-152,672134000000
-134,185475000000
-143,994723000000
-150,911500000000
-122,238315000000
-72,5632800000000
-44,2673730000000
-46,7196850000000
-71,0541650000000
-99,4758300000000
-110,857073000000
-121,106479000000
-135,128672000000
-98,0924750000000
-6,35085900000000
82,7498060000000
129,595250000000
141,102252000000
118,654167000000
72,3117600000000
22,7624850000000
-11,6327610000000
-27,9815070000000
-45,3363300000000
-69,1048910000000
-89,7923420000000
-111,234351000000
-145,252319000000
-182,351396000000
-215,174647000000
-249,821412000000
-270,760383000000
-270,194465000000
-262,397370000000
-261,579933000000
-250,324450000000
-233,158267000000
-240,892482000000
-278,683236000000
-325,340042000000
-366,023267000000
-401,613229000000
-437,831989000000
-468,894606000000
-492,097249000000
-508,508875000000
-522,028030000000
-541,709405000000
-561,830938000000
-559,001347000000
-525,612178000000
-470,466601000000
-402,179147000000
-333,954573000000
-273,652853000000
-196,876628000000
-79,6686960000000
59,3585230000000
153,866850000000
166,631448000000
126,136862000000
82,2467670000000
53,5107030000000
31,6914150000000
9,49484900000000
-4,33870600000000
-7,92285400000000
-4,84174400000000
-10,1236460000000
-24,4602390000000
-34,7096450000000
-32,6974920000000
-34,2066070000000
-45,0848110000000
-48,6060790000000
-28,8618240000000
14,5252320000000
69,8594480000000
122,992872000000
170,467115000000
223,349020000000
277,802919000000
320,561178000000
351,498035000000
374,763558000000
394,885091000000
426,450747000000
474,805306000000
503,164092000000
503,792890000000
526,681134000000
585,913898000000
642,254191000000
694,695938000000
707,397656000000
651,749040000000
530,956960000000
353,510188000000
144,875040000000
-45,7764880000000
-178,012690000000
-234,352983000000
-214,608729000000
-159,337392000000
-119,723123000000
-105,386531000000
-101,047825000000
-89,6037030000000
-67,1556170000000
-42,6324990000000
-26,4095120000000
-14,9025110000000
1,06895600000000
34,3952460000000
56,4031730000000
48,5431990000000
26,6610320000000
6,41373900000000
-15,1540300000000
-30,3709390000000
-28,5474250000000
-15,3426690000000
21,8192880000000
106,455487000000
149,779664000000
91,4900970000000
-16,4745050000000
-135,631710000000
-263,654966000000
-382,875051000000
-475,685623000000
-541,080607000000
-582,329750000000
-608,487743000000
-624,584970000000
-622,698576000000
-606,601350000000
-582,455510000000
-548,563302000000
-505,364885000000
-452,105702000000
-389,854708000000
-325,528681000000
-268,245191000000
-227,939245000000
-197,631185000000
-173,862624000000
-146,572794000000
-107,398684000000
-59,1070040000000
-10,1865260000000
26,7867910000000
63,7601090000000
128,777813000000
235,987858000000
356,654178000000
443,176771000000
505,867923000000
582,392630000000
646,341378000000
668,915223000000
649,611127000000
593,585233000000
513,036220000000
408,970165000000
297,232775000000
200,900934000000
128,714933000000
84,1960410000000
56,4031730000000
26,7867910000000
5,03038300000000
-8,42589200000000
-22,1336870000000
-29,4906220000000
-8,67741100000000
26,0322340000000
47,3484830000000
56,1516540000000
66,4010600000000
74,7011920000000
66,7154590000000
45,3363300000000
17,4177020000000
0,943197000000000
49,2348770000000
184,552188000000
301,382841000000
307,985219000000
223,223260000000
107,587323000000
43,0097770000000
47,5371220000000
45,9022480000000
-15,4684290000000
-126,954299000000
-241,772799000000
-324,208205000000
-386,773598000000
-445,629083000000
-504,044409000000
-561,579419000000
-607,858945000000
-634,457097000000
-643,386028000000
-633,765420000000
-602,011125000000
-556,863434000000
-498,196589000000
-422,489320000000
-333,765934000000
-252,588123000000
-189,016654000000
-141,290892000000
-99,2243110000000
-52,2531070000000
-8,36301200000000
23,8943210000000
44,4560130000000
62,9426710000000
83,5043630000000
106,266848000000
121,735277000000
119,848883000000
95,1371250000000
63,0684310000000
37,7907550000000
22,0079270000000
15,5313090000000
20,8760910000000
40,6832250000000
71,4314430000000
100,607667000000
119,220085000000
138,335542000000
165,939770000000
195,178873000000
214,105690000000
222,845981000000
223,474779000000
217,375440000000
209,955624000000
200,083497000000
184,363549000000
169,523918000000
154,872927000000
135,317312000000
114,755620000000
91,9302550000000
65,5836230000000
54,1395010000000
97,0235180000000
170,844394000000
205,428279000000
180,905160000000
131,796043000000
84,0074020000000
33,3262900000000
-18,5495390000000
-70,8026450000000
-111,988909000000
-138,964339000000
-159,526031000000
-180,716521000000
-202,410049000000
-223,474779000000
-237,182574000000
-235,799219000000
-224,921015000000
-213,979931000000
-204,547962000000
-193,166720000000
-181,030920000000
-168,580721000000
-153,489571000000
-130,789967000000
-109,222198000000
-95,3886440000000
-79,7315760000000
-62,7540320000000
-45,3992100000000
-23,2655230000000
10,2494060000000
60,6789990000000
119,157205000000
158,960113000000
187,696178000000
228,127884000000
262,963288000000
260,448097000000
234,667382000000
213,917051000000
256,298031000000
391,678222000000
525,675058000000
577,676645000000
547,557225000000
454,935292000000
328,358272000000
198,888781000000
81,6179690000000
-23,3912820000000
-121,295118000000
-225,361173000000
-338,796317000000
-448,081395000000
-537,496459000000
-602,828562000000
-645,649700000000
-642,757230000000
-552,839128000000
-401,298830000000
-256,863949000000
-135,317312000000
-15,6570680000000
80,4861330000000
110,605553000000
66,2124210000000
-18,9896970000000
-102,305421000000
-170,404235000000
-238,754569000000
-306,224585000000
-360,112566000000
-413,183111000000
-460,657353000000
-488,953259000000
-499,642824000000
-491,971489000000
-465,121818000000
-428,211381000000
-401,173070000000
-383,755368000000
-355,648101000000
-279,689313000000
-164,367775000000
-66,1495410000000
-21,6935280000000
-14,7767510000000
-27,4155890000000
-45,6507290000000
-46,5310460000000
-34,3323660000000
-41,3749030000000
-77,0906250000000
-114,818499000000
-131,733163000000
-134,877153000000
-137,455224000000
-138,901460000000
-135,443071000000
-126,891419000000
-110,416914000000
-66,4639400000000
8,99181000000000
101,928142000000
209,829865000000
300,125245000000
345,210056000000
345,901734000000
322,321812000000
288,806883000000
262,837529000000
242,590236000000
205,679798000000
137,140825000000
63,2570700000000
18,2980190000000
-5,15614300000000
-39,1112300000000
-91,5529770000000
-139,404498000000
-175,811897000000
-203,919164000000
-223,474779000000
-233,912825000000
-244,036471000000
-252,399483000000
-245,168307000000
-213,917051000000
-175,245979000000
-163,047300000000
-167,197366000000
-146,258395000000
-100,230388000000
-57,6607690000000
-26,4723920000000
1,76063400000000
30,1194200000000
56,5289330000000
85,3907570000000
106,832766000000
104,757733000000
72,9405580000000
19,8071340000000
-8,92893000000000
53,1334240000000
173,673984000000
282,456024000000
346,907810000000
355,019303000000
323,956686000000
284,216658000000
249,192614000000
207,000274000000
152,043336000000
107,524444000000
88,0317080000000
91,4900970000000
100,104628000000
103,940296000000
114,944259000000
137,266585000000
156,067643000000
174,114143000000
215,426166000000
281,135548000000
338,984957000000
359,420889000000
344,266859000000
315,153515000000
287,926566000000
266,798956000000
242,527356000000
204,925241000000
166,128409000000
139,027219000000
114,629860000000
93,1878510000000
90,4840200000000
113,749543000000
151,980456000000
190,462889000000
216,558002000000
220,142150000000
205,742678000000
180,905160000000
141,731050000000
87,2771510000000
30,4338190000000
-12,1358000000000
-42,5696190000000
-63,4457100000000
-78,8512590000000
-91,1128180000000
-99,8531090000000
-106,203968000000
-112,177548000000
-122,804233000000
-135,128672000000
-147,641751000000
-157,136599000000
-165,876890000000
-174,365662000000
-163,801857000000
-106,078208000000
-44,0158540000000
-32,9490110000000
-72,3746400000000
-127,017179000000
-168,392082000000
-194,738715000000
-209,892744000000
-224,229337000000
-244,728149000000
-261,328414000000
-265,604240000000
-277,677160000000
-304,778350000000
-322,636211000000
-313,707280000000
-297,735813000000
-282,896182000000
-220,959588000000
-62,9426710000000
116,579134000000
223,852058000000
262,271611000000
259,442020000000
226,304370000000
158,645714000000
52,8819050000000
-64,4517860000000
-173,862624000000
-281,575707000000
-377,152990000000
-430,789452000000
-442,359334000000
-424,124194000000
-383,063690000000
-319,617981000000
-224,606616000000
-85,2649970000000
41,3749030000000
101,110705000000
105,763809000000
84,3218010000000
36,2187600000000
-30,9997370000000
-98,2182340000000
-159,966190000000
-222,280063000000
-281,449947000000
-328,546911000000
-356,905697000000
-361,873201000000
-352,629871000000
-339,739514000000
-335,212169000000
-327,980993000000
-308,110979000000
-300,565404000000
-324,711244000000
-351,498035000000
-342,946383000000
-316,033833000000
-298,930529000000
-290,504637000000
-271,766459000000
-245,419827000000
-218,129997000000
-181,596838000000
-133,493798000000
-82,1838880000000
-37,5392360000000
1,38335500000000
35,7157220000000
63,8229880000000
83,9445220000000
108,090362000000
137,518104000000
163,487458000000
174,931580000000
172,416389000000
164,745054000000
158,771474000000
149,465265000000
140,662094000000
140,221935000000
144,372002000000
151,477418000000
156,633561000000
158,708594000000
150,848620000000
136,637787000000
124,061829000000
122,867113000000
125,508064000000
123,810310000000
119,597364000000
124,879266000000
136,512028000000
145,440958000000
150,094063000000
154,684287000000
155,753244000000
150,156942000000
145,566718000000
139,090099000000
133,053639000000
129,343731000000
127,583097000000
124,124709000000
118,339768000000
116,579134000000
116,956412000000
117,773850000000
116,076095000000
110,794193000000
110,354034000000
119,723123000000
133,179399000000
136,574907000000
129,909649000000
123,181512000000
116,453374000000
101,676623000000
77,9709420000000
52,9447850000000
38,2309130000000
30,8110980000000
27,0383100000000
19,9957740000000
10,3122860000000
1,00607700000000
-5,03038300000000
-6,97965700000000
-8,17437300000000
-11,0668430000000
-14,5252320000000
-14,7767510000000
-13,2676360000000
-15,0282700000000
-16,9775440000000
-16,5373850000000
-17,3548220000000
-21,8821670000000
-31,2512560000000
-38,7339520000000
-42,1923400000000
-40,8718650000000
-38,4824320000000
-39,4256290000000
-44,1416140000000
-52,6932650000000
-57,2206100000000
-57,8494080000000
-58,7297250000000
-66,9040980000000
-75,9587880000000
-80,4232530000000
-82,3725270000000
-88,6605060000000
-97,3379170000000
-100,670546000000
-100,984945000000
-93,1878510000000
-69,9223280000000
-49,4235160000000
-44,2044930000000
-41,0605040000000
-44,0158540000000
-56,0258940000000
-72,5004000000000
-86,7741120000000
-96,2689610000000
-99,7902290000000
-99,2243110000000
-98,2182340000000
-103,374377000000
-112,051789000000
-120,729200000000
-128,526294000000
-131,733163000000
-133,116519000000
-132,613480000000
-129,029332000000
-119,911763000000
-111,045712000000
-107,084285000000
-102,619820000000
-96,7719990000000
-95,4515240000000
-104,254694000000
-116,830653000000
-121,986796000000
-113,560904000000
-103,059978000000
-99,4129510000000
-96,7091190000000
-88,2203480000000
-77,5936630000000
-66,9669780000000
-55,9630150000000
-45,5249690000000
-31,1254970000000
-14,7138710000000
-0,125760000000000
11,6327610000000
23,7056810000000
39,0483510000000
54,8311780000000
59,1698840000000
47,3484830000000
28,6103050000000
9,49484900000000
-5,34478200000000
-15,5313090000000
-21,3162490000000
-23,5170420000000
-18,8010580000000
-14,3365920000000
-18,2980190000000
-25,1519170000000
-24,7746380000000
-21,3791290000000
-23,7056810000000
-33,7664480000000
-40,6832250000000
-40,7461050000000
-33,2005300000000
-25,4663160000000
-19,3669760000000
-13,5820350000000
-12,5759580000000
-13,5820350000000
-17,4805820000000
-23,1397630000000
-32,8861310000000
-39,8657880000000
-40,9976240000000
-43,2612970000000
-47,4742430000000
-51,3099100000000
-48,3545600000000
-44,4560130000000
-46,6568050000000
-51,0583910000000
-50,1151940000000
-46,1537670000000
-39,3627500000000
-33,3262900000000
-30,3709390000000
-30,4338190000000
-31,9429340000000
-34,2694860000000
-33,9550870000000
-34,9611640000000
-35,8414810000000
-34,0179670000000
-31,5027760000000
-31,0626170000000
-33,8293280000000
-34,9611640000000
-38,2309130000000
-40,0544270000000
-37,6021150000000
-34,6467650000000
-33,8293280000000
-32,8232510000000
-27,9186270000000
-22,0708070000000
-17,2919430000000
-17,9836200000000
-21,1904900000000
-23,7685610000000
-20,9389710000000
-17,9836200000000
-17,1661830000000
-12,7645980000000
-7,41981500000000
-9,87212700000000
-15,0282700000000
-15,3426690000000
-14,8396310000000
-14,9653900000000
-16,8517840000000
-17,7321010000000
-20,3730520000000
-22,5738450000000
-21,7564080000000
-19,1154570000000
-16,0972270000000
-12,5759580000000
-12,8903570000000
-16,0972270000000
-15,2797890000000
-12,9532370000000
-13,3933960000000
-17,1033030000000
-17,7949810000000
-17,9836200000000
-21,3791290000000
-22,8253640000000
-18,3608990000000
-14,7138710000000
-15,6570680000000
-16,6002650000000
-15,5941880000000
-15,6570680000000
-15,8457070000000
-13,8964340000000
-13,0789970000000
-15,2169100000000
-22,8882440000000
-24,5231190000000
-17,2290630000000
-10,1236460000000
-10,4380450000000
-13,7077950000000
-14,2737130000000
-14,6509910000000
-15,4684290000000
-15,2797890000000
-13,7706740000000
-18,2351400000000
-25,0261570000000
-29,9936610000000
-30,0565400000000
-27,9815070000000
-24,5231190000000
-18,8639370000000
-16,7260250000000
-18,9896970000000
-23,3284030000000
-22,0079270000000
-16,7889040000000
-16,6002650000000
-20,7503310000000
-19,0525770000000
-15,7199480000000
-17,3548220000000
-23,4541620000000
-22,3852060000000
-17,4805820000000
-16,6002650000000
-20,2472930000000
-25,5291950000000
-26,7867910000000
-23,5170420000000
-19,1783360000000
-16,6631450000000
-15,7828280000000
-20,8132110000000
-24,3344790000000
-21,7564080000000
-18,5495390000000
-19,4298560000000
-24,0200800000000
-24,2716000000000
-21,9450470000000
-23,2026430000000
-28,2959060000000
-28,9875840000000
-25,2776760000000
-22,5109650000000
-26,0951140000000
-31,8171750000000
-31,7542950000000
-28,6103050000000
-26,2837530000000
-23,0140040000000
-17,9836200000000
-17,2290630000000
-19,6813750000000
-18,6124180000000
-15,0911500000000
-16,6002650000000
-22,3223260000000
-25,9064740000000
-22,8882440000000
-22,8253640000000
-25,7178350000000
-27,2898300000000
-26,1579930000000
-24,0200800000000
-26,6610320000000
-30,1823000000000
-31,4398960000000
-31,0626170000000
-27,4784690000000
-22,8882440000000
-21,5048890000000
-23,4541620000000
-23,0140040000000
-23,4541620000000
-25,1519170000000
-27,9815070000000
-28,2959060000000
-23,0768840000000
-16,4745050000000
-17,5434620000000
-23,5799220000000
-27,5413490000000
-25,4663160000000
-23,6428020000000
-26,5352720000000
-28,7989450000000
-30,9368570000000
-29,8050210000000
-26,3466330000000
-22,6367250000000
-24,4602390000000
-23,5170420000000
-22,6996050000000
-23,1397630000000
-22,5109650000000
-26,6610320000000
-34,0179670000000
-32,2573330000000
-26,9754310000000
-28,8618240000000
-32,8861310000000
-30,1823000000000
-27,4155890000000
-29,2391030000000
-36,5960390000000
-42,3809800000000
-39,8029080000000
-30,6853380000000
-25,5920750000000
-28,7989450000000
-30,6853380000000
-30,4338190000000
-30,6224590000000
-26,2208730000000
-19,6184950000000
-18,5495390000000
-26,9125510000000
-26,9754310000000
-22,1965660000000
-23,0140040000000
-28,1701470000000
-27,6671080000000
-23,8314410000000
-25,6549550000000
-30,7482180000000
-36,2187600000000
-39,1741100000000
-35,2126830000000
-26,2208730000000
-22,1336870000000
-22,2594460000000
-26,2837530000000
-29,1762230000000
-27,7299880000000
-25,9064740000000
-25,4663160000000
-23,7056810000000
-19,6184950000000
-18,5495390000000
-24,1458400000000
-31,2512560000000
-30,6224590000000
-27,7299880000000
-26,4723920000000
-29,4277420000000
-30,1823000000000
-26,8496710000000
-24,2716000000000
-22,6996050000000
-17,6063420000000
-16,0343470000000
-20,9389710000000
-24,2716000000000
-27,3527090000000
-45,0219310000000
-74,0095150000000
-91,9931350000000
-94,7598460000000
-88,6605060000000
-83,5043630000000
-80,2974940000000
-70,3624870000000
-52,7561450000000
-36,6589190000000
-26,9125510000000
-18,6752980000000
-10,6895650000000
